ch1,ch2,ch3,label
416,144,86,0
414,140,89,0
419,140,92,0
420,145,91,0
418,143,91,0
416,142,88,0
416,144,87,0
415,140,85,0
415,143,88,0
414,140,88,0
416,142,90,0
413,145,88,0
414,143,85,0
412,141,90,0
411,138,85,0
416,145,87,0
411,138,88,0
413,141,86,0
412,141,85,0
408,144,86,0
408,144,90,0
410,141,92,0
410,142,86,0
411,142,91,0
410,142,88,0
408,141,87,0
409,141,88,0
407,141,89,0
406,139,92,0
406,142,91,0
406,141,91,0
406,141,88,0
404,137,87,0
403,140,87,0
404,139,89,0
403,141,89,0
402,140,90,0
403,142,90,0
400,142,89,0
397,141,89,0
401,134,91,0
402,140,89,0
401,142,93,0
399,144,90,0
398,141,92,0
396,140,93,0
395,139,97,0
396,139,94,0
396,139,94,0
395,140,94,0
396,142,92,0
394,141,91,0
395,140,94,0
392,141,93,0
391,142,99,0
391,138,96,0
391,143,101,0
390,142,94,0
389,139,94,0
384,146,95,0
386,144,96,0
386,141,98,0
384,143,98,0
388,143,94,0
384,143,97,0
383,145,99,0
381,140,97,0
380,141,99,0
377,144,100,0
377,140,98,0
377,140,100,0
378,142,99,0
374,141,104,0
379,143,101,0
374,141,101,0
376,144,99,0
374,142,98,0
377,144,100,0
378,142,96,0
378,144,100,0
380,144,97,0
378,137,99,0
377,141,100,0
380,143,95,0
377,142,97,0
381,141,100,0
379,140,96,0
384,143,99,0
384,142,99,0
385,142,99,0
385,138,102,0
386,139,98,0
385,141,97,0
386,141,100,0
388,146,103,0
393,144,102,0
388,142,97,0
390,143,102,0
387,144,100,0
393,143,101,0
392,146,102,0
393,145,100,0
396,144,104,0
394,148,102,0
396,143,104,0
397,146,103,0
396,146,103,0
398,147,104,0
410,145,106,0
401,146,105,0
403,149,105,0
403,147,103,0
402,150,105,0
406,147,104,0
407,152,105,0
411,149,105,0
411,148,105,0
411,150,104,0
409,149,104,0
411,144,104,0
412,146,103,0
412,149,105,0
413,151,105,0
414,150,106,0
416,147,104,0
416,148,107,0
412,150,105,0
418,150,107,0
421,150,106,0
419,148,105,0
417,148,103,0
418,148,104,0
420,148,108,0
421,148,113,0
422,152,112,0
422,150,111,0
426,152,110,0
425,146,108,0
423,150,112,0
423,151,113,0
426,155,112,0
427,153,113,0
433,151,115,0
432,152,112,0
430,152,110,0
428,150,115,0
434,151,117,0
431,152,114,0
433,155,117,0
431,147,115,0
433,154,115,0
432,149,114,0
432,149,118,0
435,150,116,0
435,150,119,0
438,152,118,0
435,150,117,0
436,147,117,0
436,150,115,0
437,148,116,0
435,149,117,0
437,150,120,0
438,146,116,0
438,146,115,0
437,148,113,0
440,146,116,0
437,148,117,0
439,149,117,0
441,145,115,0
438,147,114,0
439,148,113,0
439,149,114,0
438,148,113,0
444,148,113,0
444,149,113,0
443,150,113,0
441,150,112,0
443,147,108,0
447,147,110,0
444,147,110,0
443,150,113,0
445,150,115,0
444,146,108,0
445,150,110,0
443,148,109,0
443,148,105,0
442,148,109,0
443,151,108,0
445,153,106,0
442,151,106,0
441,147,108,0
441,153,106,0
443,155,105,0
446,153,105,0
444,154,106,0
444,156,106,0
446,155,105,0
444,152,104,0
444,152,109,0
445,151,108,0
445,155,105,0
445,158,108,0
445,150,108,0
443,158,106,0
444,155,107,0
445,155,110,0
449,156,112,0
446,157,113,0
442,153,113,0
447,158,116,0
444,156,111,0
443,158,114,0
446,154,121,0
443,157,117,0
440,154,118,0
445,156,120,0
448,154,118,0
445,155,119,0
442,153,119,0
444,154,122,0
444,154,124,0
442,150,119,0
444,152,127,0
444,154,122,0
440,150,122,0
442,153,120,0
447,155,118,0
446,156,123,0
446,154,124,0
443,155,122,0
443,156,116,0
443,155,117,0
441,156,121,0
440,156,119,0
441,153,118,0
444,158,116,0
439,156,118,0
439,155,115,0
442,158,114,0
441,157,113,0
440,157,116,0
441,157,114,0
441,154,114,0
443,157,113,0
440,156,112,0
438,154,109,0
436,152,109,0
437,152,109,0
438,152,108,0
438,151,107,0
437,154,107,0
438,153,109,0
437,152,106,0
429,150,108,0
441,154,107,0
432,149,104,0
438,148,107,0
436,149,105,0
436,153,106,0
434,152,105,0
432,152,105,0
434,156,104,0
433,151,104,0
435,149,104,0
431,151,102,0
432,152,101,0
429,152,104,0
434,152,104,0
431,152,104,0
433,152,103,0
431,151,103,0
431,150,103,0
432,150,100,0
432,150,102,0
432,153,102,0
432,150,104,0
431,148,102,0
427,152,101,0
427,146,106,0
427,146,102,0
426,152,101,0
425,150,101,0
426,153,99,0
426,150,102,0
428,147,98,0
425,150,103,0
424,151,99,0
425,152,101,0
424,151,100,0
428,150,99,0
424,148,103,0
425,153,98,0
424,149,101,0
426,150,101,0
424,153,101,0
425,152,104,0
423,151,96,0
428,148,101,0
425,150,98,0
422,150,98,0
423,152,99,0
419,150,97,0
423,154,98,0
424,149,97,0
422,145,96,0
421,149,96,0
420,151,94,0
421,154,97,0
419,151,97,0
422,153,96,0
417,149,92,0
418,152,93,0
426,157,99,0
414,157,91,0
417,156,95,0
418,158,94,0
418,153,92,0
417,157,94,0
416,155,93,0
416,158,94,0
419,164,94,0
417,162,96,0
416,160,92,0
418,158,91,0
416,163,89,0
416,165,89,0
414,168,90,0
414,169,94,0
416,169,93,0
414,169,92,0
416,170,92,0
416,169,91,0
416,174,91,0
413,180,93,0
415,181,91,0
414,180,93,0
412,180,94,0
414,180,86,0
413,177,91,0
410,182,93,0
413,183,89,0
415,180,88,0
410,180,90,0
412,180,88,0
412,183,89,0
410,181,89,0
413,180,89,0
406,183,92,0
411,180,90,0
411,180,92,0
409,180,88,0
411,178,90,0
410,181,88,0
411,186,90,0
410,179,89,0
410,180,90,0
410,182,90,0
408,180,89,0
410,179,88,0
411,181,89,0
406,183,92,0
410,181,90,0
407,177,90,0
406,177,88,0
406,180,92,0
405,183,91,0
408,185,88,0
407,179,92,0
408,181,90,0
409,177,89,0
407,182,87,0
408,179,90,0
405,180,89,0
409,180,88,0
406,180,89,0
405,177,88,0
408,176,87,0
411,181,89,0
406,179,86,0
412,183,86,0
407,182,85,0
405,180,88,0
409,179,89,0
405,178,91,0
404,182,92,0
404,181,88,0
399,183,90,0
403,182,88,0
403,178,90,0
401,181,89,0
400,182,89,0
400,185,88,0
403,192,90,0
401,190,93,0
401,189,90,0
399,186,89,0
399,189,90,0
400,190,88,0
397,189,91,0
395,192,87,0
397,197,86,0
394,191,88,0
395,191,88,0
396,190,87,0
393,189,90,0
393,192,93,0
390,194,89,0
389,193,92,0
392,189,90,0
393,189,88,0
390,192,89,0
385,189,89,0
390,194,90,0
387,192,89,0
386,190,92,0
384,193,91,0
386,193,87,0
386,192,90,0
383,194,89,0
385,201,92,0
382,199,88,0
384,198,92,0
382,195,88,0
380,200,90,0
377,200,90,0
379,204,91,0
383,202,89,0
378,202,91,0
378,198,90,0
379,197,91,0
378,200,89,0
385,204,89,0
374,207,92,0
378,210,90,0
378,205,92,0
375,204,92,0
376,203,89,0
373,203,96,0
373,209,88,0
373,211,92,0
373,211,91,0
377,209,89,0
376,210,88,0
371,209,90,0
374,210,89,0
372,214,93,0
373,221,91,0
372,220,90,0
372,217,92,0
372,214,88,0
373,220,90,0
373,222,92,0
375,225,91,0
372,227,91,0
376,228,88,0
378,225,91,0
374,225,93,0
373,228,90,0
377,232,92,0
378,236,91,0
378,237,92,0
376,236,90,0
380,235,92,0
379,238,89,0
382,243,90,0
379,250,94,0
384,250,92,0
384,247,88,0
382,245,92,0
382,242,91,0
381,244,90,0
384,246,90,0
383,250,93,0
385,246,91,0
386,245,95,0
386,236,90,0
389,243,91,0
384,241,93,0
389,243,95,0
389,244,93,0
388,241,88,0
393,238,94,0
393,239,91,0
394,236,92,0
394,236,90,0
396,241,91,0
397,244,91,0
390,242,95,0
394,237,92,0
395,236,95,0
395,238,96,0
395,243,94,0
397,242,92,0
396,239,93,0
396,238,91,0
397,235,92,0
399,237,93,0
398,242,91,0
401,247,94,0
401,249,95,0
401,251,90,0
401,249,93,0
405,245,92,0
402,247,91,0
404,250,91,0
405,260,90,0
403,260,88,0
406,260,91,0
404,258,89,0
405,257,93,0
407,263,93,0
410,271,89,0
407,273,90,0
410,270,90,0
410,269,89,0
412,264,90,0
411,269,86,0
409,271,91,0
413,273,88,0
412,272,89,0
411,270,89,0
414,270,89,0
414,262,93,0
413,266,89,0
413,268,86,0
416,275,90,0
414,270,92,0
417,266,90,0
418,264,91,0
420,267,90,0
417,268,86,0
417,272,90,0
415,274,90,0
419,271,92,0
419,270,89,0
418,266,88,0
420,274,88,0
424,272,90,0
419,275,88,0
421,282,86,0
421,281,88,0
423,276,87,0
420,274,86,0
421,279,90,0
424,279,89,0
423,286,89,0
424,279,88,0
421,278,87,0
422,280,90,0
423,276,89,0
422,277,88,0
424,285,88,0
425,280,89,0
420,279,86,0
425,274,86,0
425,275,88,0
431,275,91,0
425,275,84,0
426,282,89,0
429,279,86,0
428,280,88,0
426,273,90,0
425,268,89,0
426,272,88,0
426,275,86,0
429,277,87,0
427,276,89,0
428,271,84,0
427,269,89,0
427,268,88,0
428,265,88,0
427,271,91,0
430,274,88,0
426,274,86,0
426,269,89,0
428,264,86,0
428,270,87,0
428,270,89,0
427,275,91,0
426,271,92,0
428,267,89,0
428,264,90,0
425,266,91,0
427,268,93,0
426,270,89,0
431,272,91,0
427,268,92,0
429,268,89,0
428,264,89,0
427,262,87,0
424,269,90,0
426,270,90,0
427,269,90,0
426,269,90,0
427,265,90,0
423,263,89,0
424,263,93,0
422,266,88,0
425,266,89,0
429,269,88,0
424,264,89,0
425,260,90,0
424,257,88,0
424,256,91,0
421,256,91,0
425,253,90,0
422,256,88,0
425,250,86,0
423,243,89,0
422,243,87,0
429,245,92,0
423,245,89,0
420,243,95,0
422,242,89,0
420,240,87,0
423,235,86,0
423,235,89,0
422,237,88,0
420,238,93,0
422,237,89,0
420,233,92,0
420,230,92,0
420,226,89,0
420,228,89,0
422,230,86,0
422,228,90,0
418,225,89,0
421,225,88,0
420,220,84,0
418,219,90,0
418,219,89,0
421,216,88,0
416,218,88,0
420,217,92,0
420,214,88,0
417,216,87,0
415,217,89,0
416,219,87,0
417,222,91,0
417,224,90,0
417,221,84,0
418,215,88,0
417,214,87,0
418,218,87,0
420,220,86,0
421,220,87,0
418,223,86,0
418,218,84,0
414,219,89,0
418,219,87,0
416,216,90,0
416,220,87,0
415,218,88,0
414,221,88,0
418,214,90,0
416,212,87,0
414,208,91,0
416,212,86,0
416,208,89,0
414,208,92,0
414,201,89,0
417,202,88,0
413,198,86,0
414,201,85,0
412,201,89,0
413,202,92,0
416,196,88,0
414,193,90,0
415,192,89,0
414,190,90,0
414,189,86,0
413,190,86,0
417,189,93,0
414,189,89,0
414,186,86,0
412,181,91,0
414,181,88,0
411,183,89,0
414,184,89,0
414,178,89,0
413,181,89,0
411,177,86,0
413,179,90,0
412,177,91,0
414,182,89,0
412,181,90,0
414,179,90,0
414,178,88,0
414,176,89,0
416,178,86,0
410,181,87,0
413,181,90,0
415,181,90,0
413,175,92,0
414,176,91,0
414,176,92,0
414,175,89,0
411,178,88,0
413,178,91,0
414,178,93,0
412,176,92,0
412,171,92,0
410,176,87,0
414,174,86,0
409,176,91,0
416,177,90,0
412,177,92,0
415,177,91,0
411,173,90,0
408,177,92,0
412,176,89,0
411,182,94,0
412,180,92,0
412,179,90,0
414,179,92,0
411,179,90,0
408,182,92,0
409,188,91,0
407,187,89,0
412,185,94,0
407,183,90,0
407,181,89,0
401,187,92,0
407,185,93,0
408,188,92,0
406,184,95,0
408,188,88,0
405,184,92,0
403,182,91,0
397,184,91,0
401,188,92,0
402,189,90,0
401,191,93,0
401,186,93,0
402,184,88,0
402,189,92,0
398,190,91,0
400,194,90,0
400,195,89,0
398,193,92,0
397,190,94,0
399,190,94,0
398,192,88,0
394,189,91,0
395,195,93,0
394,192,91,0
389,195,84,0
396,194,96,0
393,192,91,0
391,197,91,0
393,199,91,0
392,198,90,0
392,199,90,0
394,195,89,0
392,193,90,0
388,195,88,0
389,193,89,0
385,194,89,0
387,195,89,0
390,193,88,0
388,195,88,0
385,190,90,0
389,192,90,0
385,193,89,0
380,196,88,0
385,192,90,0
383,197,90,0
384,192,89,0
384,194,90,0
385,198,90,0
376,196,88,0
378,195,90,0
379,194,88,0
379,193,90,0
378,195,87,0
379,196,88,0
378,196,87,0
376,197,87,0
376,196,88,0
378,194,87,0
376,197,87,0
376,195,87,0
372,195,88,0
375,194,88,0
374,198,91,0
373,193,89,0
374,198,88,0
374,195,87,0
373,194,89,0
373,192,91,0
372,195,88,0
374,193,85,0
369,190,85,0
372,190,87,0
369,188,89,0
370,184,89,0
368,187,88,0
366,187,89,0
370,186,92,0
369,184,86,0
370,182,86,0
371,179,84,0
368,180,88,0
368,181,87,0
370,184,90,0
367,181,86,0
369,181,85,0
369,181,85,0
370,180,86,0
370,181,86,0
368,183,86,0
372,187,88,0
370,188,90,0
373,184,87,0
373,184,85,0
370,185,85,0
375,183,87,0
371,189,85,0
377,186,87,0
375,184,84,0
375,184,85,0
377,186,87,0
376,184,87,0
378,191,85,0
377,194,88,0
377,193,87,0
379,193,87,0
380,188,86,0
377,190,88,0
379,190,87,0
380,200,87,0
381,199,88,0
382,198,88,0
384,198,86,0
385,198,86,0
387,202,87,0
386,204,85,0
383,215,86,0
387,212,86,0
388,218,84,0
387,213,89,0
391,219,88,0
391,216,88,0
390,220,86,0
391,219,86,0
393,222,85,0
395,217,86,0
394,219,89,0
392,220,86,0
397,221,85,0
395,225,86,0
396,224,89,0
396,224,86,0
394,222,84,0
394,218,84,0
397,224,86,0
396,227,85,0
398,232,87,0
400,226,88,0
400,225,91,0
400,223,87,0
401,219,87,0
404,224,85,0
404,231,84,0
402,231,88,0
403,227,88,0
402,227,87,0
405,223,87,0
405,223,86,0
403,225,85,0
407,233,86,0
404,229,86,0
409,229,88,0
408,226,86,0
409,220,88,0
408,222,84,0
405,222,84,0
409,224,86,0
411,225,86,0
411,220,86,0
408,216,88,0
409,219,89,0
412,219,88,0
408,225,85,0
410,223,84,0
411,222,87,0
412,220,87,0
413,216,86,0
414,221,88,0
410,218,88,0
413,224,84,0
411,225,88,0
412,221,87,0
411,220,91,0
413,215,87,0
417,214,85,0
418,218,84,0
416,218,85,0
413,220,84,0
414,214,88,0
412,211,86,0
412,211,86,0
414,214,86,0
415,208,86,0
416,215,88,0
412,214,85,0
416,210,86,0
418,208,88,0
414,214,85,0
414,210,88,0
412,212,87,0
419,213,86,0
414,207,88,0
415,206,86,0
420,206,88,0
414,209,86,0
416,209,85,0
416,212,83,0
420,212,85,0
419,210,85,0
420,208,87,0
416,208,89,0
419,213,87,0
416,212,86,0
415,214,84,0
416,210,88,0
421,213,85,0
419,210,86,0
418,215,85,0
418,218,89,0
417,223,88,0
418,225,88,0
417,218,90,0
418,218,88,0
419,224,84,0
417,225,89,0
417,230,86,0
415,224,85,0
419,228,85,0
418,226,84,0
418,221,88,0
418,225,85,0
419,222,85,0
417,226,86,0
419,227,89,0
416,224,87,0
417,218,88,0
417,217,83,0
417,217,85,0
417,217,91,0
420,218,86,0
418,221,86,0
417,215,86,0
418,216,85,0
416,216,88,0
417,217,91,0
417,221,85,0
416,223,83,0
420,220,83,0
418,215,86,0
416,218,88,0
416,219,86,0
416,215,88,0
418,220,85,0
419,220,89,0
417,219,84,0
417,213,88,0
417,215,86,0
416,218,85,0
416,215,87,0
416,216,88,0
414,213,86,0
415,212,88,0
415,209,85,0
417,209,87,0
413,210,88,0
411,210,87,0
414,208,88,0
413,206,86,0
415,205,87,0
413,202,85,0
413,203,84,0
412,206,90,0
414,210,86,0
415,209,89,0
413,205,87,0
411,207,87,0
413,205,84,0
412,207,88,0
412,208,86,0
412,206,87,0
413,210,86,0
411,204,87,0
411,204,86,0
412,200,88,0
411,207,87,0
411,208,88,0
408,204,86,0
416,205,89,0
415,206,86,0
413,206,87,0
412,204,87,0
410,209,87,0
409,212,86,0
411,206,88,0
410,208,86,0
410,204,89,0
410,204,90,0
409,205,88,0
408,207,89,0
406,205,88,0
410,204,90,0
411,204,91,0
409,200,91,0
405,204,90,0
408,205,85,0
406,208,88,0
407,204,88,0
408,206,90,0
410,200,86,0
402,204,89,0
407,205,86,0
405,211,89,0
406,212,86,0
405,214,89,0
407,215,87,0
405,210,90,0
405,212,88,0
405,216,89,0
403,218,86,0
404,214,89,0
405,215,88,0
404,216,86,0
404,214,87,0
403,215,90,0
401,216,88,0
405,221,86,0
405,220,87,0
404,218,91,0
406,216,88,0
402,218,89,0
404,220,86,0
404,226,87,0
404,224,89,0
404,224,88,0
402,220,87,0
404,220,85,0
401,219,90,0
402,218,85,0
398,224,88,0
397,222,85,0
400,218,89,0
398,216,88,0
398,215,89,0
399,215,86,0
395,213,90,0
396,216,85,0
395,212,90,0
396,209,89,0
393,207,90,0
393,205,88,0
393,204,89,0
395,210,88,0
395,206,90,0
390,204,90,0
392,201,89,0
392,201,84,0
392,202,88,0
389,201,90,0
383,207,88,0
391,204,89,0
385,208,87,0
387,205,86,0
384,200,86,0
383,208,86,0
387,204,86,0
387,204,90,0
385,201,88,0
384,202,87,0
383,197,87,0
381,201,88,0
382,200,87,0
382,200,87,0
378,199,88,0
381,201,89,0
376,195,89,0
376,193,89,0
379,192,88,0
374,192,84,0
377,193,91,0
381,196,87,0
381,192,84,0
380,191,86,0
376,184,87,0
376,191,86,0
373,193,86,0
375,195,88,0
374,193,86,0
377,193,86,0
371,193,89,0
372,188,89,0
373,193,86,0
369,196,86,0
375,199,89,0
373,192,92,0
375,194,88,0
373,193,89,0
370,194,89,0
373,194,84,0
372,195,87,0
372,192,88,0
371,194,87,0
372,188,90,0
374,188,86,0
375,190,86,0
372,190,86,0
378,194,91,0
376,189,85,0
376,188,85,0
374,187,85,0
377,184,90,0
380,184,88,0
378,185,85,0
380,184,88,0
381,177,92,0
384,181,86,0
379,175,90,0
384,180,85,0
382,179,87,0
382,177,86,0
384,173,88,0
388,176,87,0
384,174,90,0
387,171,88,0
383,172,88,0
388,177,85,0
388,176,89,0
389,176,86,0
390,178,89,0
393,171,85,0
389,176,87,0
391,176,92,0
390,182,87,0
394,179,89,0
395,182,89,0
399,178,88,0
395,180,87,0
393,180,88,0
395,178,85,0
400,183,88,0
397,182,86,0
397,175,90,0
397,178,85,0
399,178,88,0
400,177,83,0
399,181,85,0
400,179,88,0
401,176,84,0
401,179,89,0
400,178,85,0
403,173,85,0
402,173,88,0
402,175,90,0
408,177,88,0
405,176,87,0
409,176,89,0
404,173,85,0
403,172,90,0
408,168,88,0
406,178,88,0
406,176,88,0
406,174,88,0
408,172,89,0
405,171,85,0
407,173,88,0
406,175,89,0
405,175,90,0
410,174,88,0
408,176,88,0
410,173,90,0
411,172,91,0
409,172,88,0
410,174,88,0
410,176,88,0
412,171,92,0
412,171,90,0
412,176,88,0
410,175,88,0
409,172,87,0
415,175,90,0
410,172,87,0
412,177,89,0
412,171,88,0
412,171,89,0
410,172,89,0
412,170,86,0
410,169,88,0
414,170,89,0
414,169,91,0
414,168,85,0
412,167,87,0
413,170,91,0
411,167,88,0
411,168,88,0
414,166,89,0
412,165,88,0
417,162,90,0
411,164,90,0
414,168,90,0
415,165,90,0
414,166,89,0
414,164,88,0
414,164,90,0
411,166,89,0
415,163,87,0
414,166,96,0
415,166,93,0
413,166,88,0
412,167,90,0
416,164,93,0
414,167,90,0
412,169,89,0
413,174,90,0
415,171,92,0
412,169,95,0
415,166,89,0
412,165,92,0
411,170,93,0
416,169,90,0
411,170,93,0
412,167,92,0
413,168,89,0
411,169,91,0
414,171,92,0
415,171,89,0
406,175,91,0
413,174,90,0
412,174,91,0
410,173,88,0
410,172,91,0
410,176,91,0
411,175,91,0
412,175,91,0
412,175,92,0
411,176,89,0
412,171,88,0
414,172,89,0
412,173,88,0
409,175,88,0
411,173,92,0
411,172,88,0
409,172,89,0
411,172,90,0
409,171,89,0
413,173,88,0
408,171,89,0
409,171,89,0
409,167,90,0
411,167,92,0
409,168,88,0
409,169,89,0
408,170,86,0
411,170,88,0
410,169,90,0
409,167,91,0
405,166,88,0
409,164,89,0
408,165,89,0
410,170,89,0
407,172,88,0
408,170,89,0
412,170,89,0
408,168,88,0
408,167,88,0
406,168,87,0
412,168,90,0
408,164,88,0
408,166,89,0
412,162,89,0
408,165,87,0
408,166,89,0
408,168,91,0
406,171,85,0
411,168,85,0
408,166,90,0
407,166,89,0
408,168,88,0
409,166,90,0
404,166,87,0
411,170,87,0
407,165,87,0
406,167,89,0
405,165,87,0
408,164,92,0
407,163,89,0
406,168,88,0
409,165,88,0
409,161,91,0
407,164,88,0
405,161,93,0
405,161,89,0
408,160,89,0
404,164,90,0
408,163,91,0
409,161,86,0
407,160,87,0
406,164,86,0
407,158,89,0
405,164,84,0
405,163,82,0
412,163,85,0
408,163,89,0
403,161,88,0
407,164,91,0
404,163,89,0
406,168,87,0
404,167,86,0
403,165,88,0
404,165,87,0
404,162,86,0
399,166,88,0
403,167,87,0
403,170,88,0
402,169,88,0
403,171,86,0
402,168,87,0
405,166,87,0
402,168,85,0
406,170,87,0
406,170,86,0
405,166,87,0
404,168,89,0
401,166,89,0
401,168,87,0
401,172,87,0
401,173,88,0
404,171,89,0
401,171,86,0
399,169,90,0
402,168,84,0
401,167,90,0
400,170,90,0
402,172,84,0
404,171,85,0
401,169,86,0
404,169,88,0
403,169,88,0
400,170,88,0
403,176,90,0
401,176,87,0
402,172,88,0
398,172,88,0
403,169,88,0
402,175,87,0
403,178,83,0
401,178,87,0
398,179,87,0
398,175,87,0
400,176,90,0
396,177,90,0
400,176,90,0
396,176,85,0
400,176,92,0
400,172,88,0
400,175,88,0
400,173,88,0
400,171,90,0
401,169,93,0
398,169,88,0
399,167,96,0
400,168,92,0
400,169,92,0
400,166,86,0
400,163,91,0
402,168,90,0
399,168,91,0
398,167,87,0
398,164,89,0
398,164,87,0
398,166,90,0
397,164,89,0
397,168,88,0
395,165,88,0
400,165,91,0
397,169,90,0
395,165,92,0
397,164,92,0
396,165,92,0
392,164,89,0
395,164,91,0
391,162,91,0
395,162,93,0
389,160,94,0
390,161,90,0
390,163,91,0
391,166,90,0
390,163,89,0
390,161,91,0
393,162,94,0
393,159,90,0
390,162,88,0
390,163,89,0
388,162,89,0
387,162,89,0
389,158,92,0
387,160,88,0
386,162,91,0
385,161,90,0
383,163,92,0
387,162,90,0
385,163,90,0
384,162,88,0
384,161,90,0
383,160,93,0
381,167,90,0
385,166,88,0
380,166,90,0
381,165,90,0
382,165,90,0
381,166,88,0
378,169,90,0
380,174,91,0
380,173,89,0
378,171,87,0
379,171,89,0
375,173,87,0
375,171,88,0
376,174,90,0
375,176,92,0
374,181,91,0
375,178,86,0
375,177,90,0
374,177,89,0
372,181,91,0
371,187,88,0
371,187,90,0
370,186,90,0
371,185,89,0
371,184,89,0
373,188,89,0
373,191,90,0
373,188,88,0
370,188,91,0
372,189,87,0
370,189,88,0
369,192,88,0
367,192,87,0
367,196,88,0
367,198,85,0
368,194,86,0
371,193,89,0
368,194,83,0
371,197,87,0
370,194,85,0
371,202,84,0
373,201,85,0
370,201,85,0
374,202,90,0
370,196,87,0
371,197,83,0
373,198,84,0
372,202,85,0
375,203,86,0
376,197,87,0
380,198,86,0
376,198,86,0
376,198,83,0
376,201,88,0
381,202,85,0
378,198,87,0
382,198,88,0
380,197,87,0
382,196,88,0
381,195,89,0
386,198,88,0
383,196,88,0
384,198,87,0
384,196,88,0
384,195,89,0
386,197,94,0
388,202,87,0
388,198,85,0
390,200,87,0
389,196,88,0
388,195,88,0
391,195,87,0
392,196,87,0
393,202,87,0
394,201,88,0
394,195,87,0
396,197,87,0
394,199,89,0
395,197,86,0
394,198,85,0
396,200,85,0
398,200,87,0
397,198,87,0
401,197,88,0
399,194,86,0
400,195,87,0
403,197,86,0
401,196,88,0
402,194,89,0
402,192,87,0
400,188,88,0
402,192,92,0
404,188,89,0
405,192,85,0
405,191,86,0
402,188,87,0
408,189,89,0
406,188,88,0
406,193,86,0
407,189,84,0
408,188,92,0
408,187,88,0
404,185,87,0
408,180,87,0
410,184,89,0
409,185,87,0
405,185,84,0
410,183,84,0
412,183,91,0
412,182,88,0
408,180,87,0
411,180,92,0
410,178,85,0
409,182,87,0
414,180,86,0
409,178,89,0
411,176,88,0
411,176,88,0
412,178,86,0
413,179,86,0
411,177,84,0
415,176,89,0
416,173,88,0
415,172,88,0
413,174,87,0
415,169,89,0
412,174,86,0
416,171,88,0
413,171,86,0
415,169,88,0
418,169,87,0
418,170,88,0
417,167,89,0
414,166,88,0
413,169,89,0
416,166,85,0
414,164,89,0
417,164,87,0
418,167,89,0
415,166,84,0
417,164,89,0
418,165,87,0
416,165,87,0
414,161,86,0
421,160,85,0
420,162,86,0
414,164,86,0
415,165,82,0
420,162,86,0
419,164,89,0
416,161,90,0
416,157,88,0
415,164,86,0
416,164,87,0
418,162,86,0
415,162,89,0
419,160,88,0
417,158,87,0
416,157,87,0
419,159,86,0
417,160,84,0
414,162,88,0
417,160,87,0
415,158,85,0
416,158,90,0
414,160,88,0
416,158,89,0
415,158,86,0
414,162,85,0
417,161,89,0
414,159,89,0
412,164,86,0
414,166,88,0
414,169,85,0
418,168,88,0
418,166,88,0
416,166,90,0
414,165,90,0
419,162,88,0
413,167,90,0
415,166,90,0
416,167,88,0
418,167,87,0
412,165,86,0
413,167,84,0
412,167,88,0
412,168,86,0
415,165,90,0
413,167,85,0
412,164,91,0
413,164,84,0
412,161,86,0
412,163,88,0
412,167,90,0
411,164,86,0
416,164,89,0
414,160,87,0
414,160,90,0
412,160,85,0
413,164,86,0
415,161,86,0
412,159,86,0
414,158,89,0
414,155,88,0
412,160,88,0
410,160,86,0
413,161,86,0
411,159,89,0
412,157,92,0
413,158,88,0
412,161,89,0
410,162,91,0
411,157,86,0
410,160,87,0
412,161,88,0
410,158,88,0
410,158,86,0
410,155,89,0
412,158,88,0
410,159,92,0
410,157,89,0
412,158,88,0
410,158,88,0
407,154,92,0
408,155,85,0
410,154,88,0
407,162,88,0
408,154,92,0
409,157,90,0
407,157,88,0
405,155,92,0
404,155,91,0
408,157,88,0
405,156,92,0
406,157,93,0
406,154,92,0
406,156,91,0
408,158,93,0
407,154,91,0
405,158,91,0
404,155,92,0
404,155,90,0
404,156,91,0
406,156,94,0
401,149,91,0
401,160,99,0
405,156,93,0
403,157,93,0
404,155,93,0
404,150,97,0
403,155,93,0
400,155,95,0
401,154,96,0
401,151,94,0
404,153,96,0
404,153,98,0
400,154,98,0
398,152,99,0
399,155,94,0
402,156,99,0
398,153,95,0
399,151,95,0
399,151,96,0
400,150,98,0
402,150,97,0
400,150,96,0
398,150,97,0
402,150,93,0
401,151,97,0
397,149,94,0
395,151,95,0
397,147,99,0
397,150,94,0
396,152,93,0
398,146,95,0
393,150,95,0
395,149,94,0
396,148,93,0
393,148,91,0
392,148,96,0
396,148,94,0
394,145,94,0
396,148,92,0
390,146,96,0
393,147,94,0
392,148,90,0
394,145,92,0
393,147,95,0
393,149,90,0
394,145,92,0
393,141,88,0
390,148,90,0
391,148,93,0
390,150,96,0
392,146,92,0
388,146,88,0
387,146,89,0
389,146,91,0
387,141,94,0
388,144,93,0
386,145,92,0
390,144,92,0
386,144,90,0
385,142,92,0
384,146,91,0
384,144,90,0
389,144,90,0
384,146,93,0
378,144,93,0
385,145,90,0
380,141,89,0
381,141,89,0
381,144,88,0
380,144,92,0
378,146,86,0
383,147,90,0
378,140,92,0
380,146,90,0
375,144,90,0
380,145,91,0
378,143,90,0
378,144,91,0
376,144,89,0
379,141,90,0
378,146,88,0
378,143,91,0
379,142,88,0
379,145,89,0
379,143,93,0
380,144,89,0
376,145,90,0
377,143,89,0
381,142,92,0
383,142,90,0
383,144,88,0
383,145,89,0
383,142,87,0
382,143,91,0
386,141,88,0
386,142,87,0
386,144,92,0
386,143,91,0
384,140,91,0
385,142,90,0
386,144,88,0
391,145,89,0
390,142,90,0
395,143,89,0
390,144,89,0
388,140,89,0
393,143,88,0
392,144,88,0
395,145,90,0
395,143,92,0
396,141,88,0
397,142,91,0
396,143,88,0
397,139,92,0
397,152,88,0
400,146,89,0
402,144,88,0
400,143,91,0
401,141,91,0
407,144,89,0
404,144,84,0
404,141,85,0
408,142,88,0
405,142,92,0
406,143,91,0
408,140,92,0
407,142,90,0
408,145,87,0
407,142,88,0
410,144,93,0
409,142,90,0
413,143,86,0
414,141,89,0
415,142,86,0
410,142,87,0
414,144,89,0
413,141,90,0
414,142,87,0
421,141,91,0
413,140,89,0
414,142,86,0
416,141,84,0
416,146,86,0
419,144,88,0
417,143,87,0
417,144,88,0
418,142,86,0
416,142,89,0
421,143,87,0
421,140,91,0
421,142,89,0
422,139,88,0
422,143,88,0
420,145,90,0
420,143,90,0
423,141,90,0
418,142,90,0
423,143,87,0
422,142,91,0
424,146,91,0
423,139,87,0
422,143,89,0
426,141,88,0
427,139,90,0
425,144,92,0
427,144,88,0
426,144,89,0
429,144,90,0
428,143,90,0
430,141,91,0
426,142,90,0
429,145,90,0
432,142,87,0
426,144,91,0
429,141,93,0
429,144,90,0
431,141,92,0
432,139,86,0
428,141,86,0
433,140,89,0
429,140,91,0
432,144,90,0
431,140,92,0
430,142,91,0
434,143,91,0
433,144,92,0
433,142,89,0
430,142,89,0
435,142,89,0
433,145,90,0
430,144,91,0
436,143,91,0
430,142,92,0
432,143,84,0
435,144,90,0
433,144,89,0
434,145,88,0
437,143,88,0
434,147,91,0
437,146,94,0
430,145,88,0
434,143,87,0
435,143,90,0
433,146,90,0
432,145,87,0
434,145,90,0
434,148,89,0
436,149,90,0
432,147,91,0
433,154,91,0
434,154,88,0
435,158,88,0
434,158,87,0
434,160,87,0
435,156,89,0
436,160,90,0
435,164,90,0
436,171,89,0
434,171,87,0
437,169,90,0
435,171,88,0
435,176,90,0
436,175,90,0
436,178,90,0
433,182,88,0
433,182,87,0
435,182,88,0
435,181,87,0
438,181,88,0
434,181,89,0
434,185,90,0
436,188,90,0
432,191,89,0
433,189,88,0
436,186,88,0
438,188,84,0
436,194,91,0
436,197,86,0
434,193,88,0
434,196,89,0
433,192,88,0
435,192,90,0
436,192,90,0
436,195,90,0
438,194,90,0
434,197,87,0
432,196,87,0
432,189,87,0
434,196,86,0
432,195,87,0
435,195,88,0
433,195,89,0
436,195,86,0
435,192,90,0
434,193,92,0
432,194,88,0
434,193,90,0
432,197,88,0
437,198,88,0
430,194,88,0
434,196,89,0
435,194,88,0
435,193,87,0
433,200,87,0
433,198,95,0
435,201,92,0
431,194,89,0
434,197,88,0
433,200,88,0
430,199,88,0
434,204,88,0
431,199,89,0
434,200,87,0
431,197,87,0
431,195,85,0
431,197,89,0
432,200,88,0
431,197,86,0
430,200,89,0
431,201,90,0
428,196,87,0
430,198,87,0
430,186,89,0
432,200,88,0
430,201,90,0
430,200,87,0
428,196,88,0
430,194,89,0
431,199,88,0
431,196,91,0
431,197,88,0
429,197,86,0
429,194,89,0
427,188,89,0
429,192,89,0
430,191,86,0
431,191,88,0
428,188,90,0
428,193,86,0
430,184,89,0
429,183,89,0
427,188,88,0
425,186,88,0
428,188,87,0
425,189,90,0
425,189,88,0
427,186,90,0
429,179,85,0
425,192,86,0
422,186,89,0
425,189,86,0
426,185,88,0
426,184,87,0
425,183,86,0
425,177,92,0
425,182,89,0
425,179,88,0
424,183,84,0
427,181,88,0
422,180,88,0
422,177,88,0
418,179,88,0
423,180,84,0
422,184,89,0
421,183,88,0
419,180,87,0
420,174,86,0
422,177,89,0
422,182,89,0
421,184,88,0
420,185,86,0
418,182,88,0
420,182,87,0
420,181,88,0
419,177,88,0
422,181,89,0
423,184,88,0
418,183,87,0
418,187,90,0
418,182,90,0
423,185,88,0
416,183,85,0
416,181,86,0
417,187,88,0
421,186,88,0
416,186,88,0
414,185,90,0
416,186,87,0
415,187,89,0
416,190,88,0
412,186,90,0
413,186,89,0
414,190,88,0
411,186,90,0
414,188,89,0
413,186,88,0
412,189,92,0
414,187,89,0
413,185,90,0
409,184,89,0
409,184,92,0
405,183,88,0
411,182,90,0
411,184,91,0
412,183,90,0
409,180,92,0
408,174,89,0
408,182,87,0
409,177,90,0
408,177,92,0
405,176,89,0
403,180,91,0
402,175,88,0
406,172,88,0
405,170,94,0
407,171,89,0
404,177,91,0
404,170,89,0
403,172,89,0
404,168,87,0
404,170,92,0
402,171,95,0
399,170,91,0
400,173,92,0
399,173,92,0
399,171,88,0
401,173,90,0
395,171,88,0
400,171,91,0
396,171,88,0
395,170,88,0
395,170,89,0
392,167,91,0
395,168,91,0
394,170,90,0
392,164,92,0
393,173,85,0
388,167,92,0
392,165,87,0
389,166,86,0
389,165,90,0
389,165,92,0
390,168,85,0
384,167,88,0
389,166,89,0
384,163,90,0
386,164,90,0
387,162,89,0
382,165,90,0
383,166,89,0
384,164,88,0
381,164,88,0
381,164,89,0
379,163,91,0
383,162,90,0
379,165,88,0
380,167,89,0
377,166,89,0
374,164,89,0
378,165,86,0
376,166,88,0
373,166,89,0
374,168,90,0
373,167,87,0
371,167,85,0
374,166,88,0
374,162,86,0
373,166,90,0
371,165,89,0
370,165,86,0
368,164,87,0
375,166,87,0
370,163,88,0
369,160,85,0
371,165,93,0
368,163,90,0
368,167,90,0
367,165,88,0
372,167,86,0
369,166,87,0
370,168,89,0
371,172,86,0
369,173,88,0
367,176,89,0
373,174,86,0
368,172,86,0
372,174,87,0
371,176,85,0
376,173,88,0
369,182,88,0
374,183,85,0
374,184,86,0
372,183,86,0
374,180,88,0
376,186,87,0
378,189,88,0
377,195,88,0
374,195,88,0
377,195,88,0
378,195,84,0
379,192,86,0
381,198,86,0
381,199,88,0
380,202,86,0
381,201,88,0
382,199,86,0
385,198,89,0
384,200,88,0
382,201,91,0
384,205,88,0
389,202,88,0
387,203,87,0
387,200,89,0
386,199,86,0
386,203,88,0
387,204,88,0
390,206,89,0
391,206,88,0
386,204,88,0
393,204,90,0
390,200,86,0
392,205,86,0
391,203,87,0
391,200,90,0
391,204,88,0
387,200,87,0
391,203,86,0
394,200,87,0
397,198,86,0
395,203,86,0
396,199,88,0
395,202,84,0
392,195,88,0
397,198,86,0
395,199,86,0
396,200,90,0
397,197,86,0
398,194,89,0
400,195,84,0
400,193,89,0
398,193,89,0
401,197,88,0
403,194,87,0
402,194,87,0
399,190,86,0
401,189,86,0
404,190,87,0
401,189,88,0
408,190,84,0
402,193,86,0
403,187,86,0
404,188,90,0
404,189,80,0
405,188,89,0
406,188,90,0
408,196,87,0
406,191,88,0
407,194,88,0
408,193,84,0
408,192,89,0
409,192,85,0
410,194,89,0
409,199,90,0
406,200,87,0
408,199,86,0
406,197,85,0
406,197,87,0
412,200,86,0
412,198,86,0
409,196,84,0
409,199,88,0
410,199,89,0
411,194,88,0
407,195,87,0
413,196,88,0
414,198,86,0
411,196,86,0
412,197,85,0
412,194,86,0
411,192,88,0
414,193,88,0
412,196,86,0
415,195,90,0
411,196,86,0
414,199,86,0
412,194,86,0
411,196,86,0
413,196,88,0
413,200,88,0
412,201,84,0
416,204,86,0
413,204,86,0
416,202,86,0
415,206,87,0
412,205,89,0
413,212,89,0
414,215,88,0
414,214,90,0
412,210,85,0
413,212,89,0
414,214,86,0
414,214,82,0
415,217,86,0
411,214,87,0
415,218,88,0
414,214,86,0
414,213,88,0
415,219,85,0
415,216,87,0
414,223,90,0
415,225,87,0
414,221,86,0
416,220,88,0
417,221,87,0
414,221,85,0
419,228,88,0
416,226,88,0
414,228,84,0
417,224,84,0
416,223,88,0
419,227,89,0
414,230,89,0
419,235,87,0
418,233,86,0
417,233,90,0
417,230,88,0
422,229,89,0
417,233,91,0
416,238,89,0
414,238,86,0
414,237,85,0
414,236,88,0
416,235,89,0
419,233,88,0
419,232,89,0
416,237,90,0
417,235,83,0
417,229,86,0
415,229,84,0
416,227,89,0
418,231,88,0
416,231,87,0
415,230,90,0
415,226,87,0
416,224,86,0
416,224,90,0
414,226,90,0
415,229,87,0
414,228,88,0
415,230,85,0
416,225,90,0
414,224,90,0
413,222,85,0
419,223,89,0
417,226,89,0
414,226,87,0
415,222,86,0
414,220,88,0
415,221,88,0
418,219,91,0
416,217,89,0
417,220,90,0
416,222,88,0
414,218,89,0
416,220,89,0
412,219,86,0
414,218,89,0
416,219,88,0
415,219,92,0
414,219,92,0
414,218,90,0
414,217,91,0
417,216,90,0
413,214,89,0
413,217,88,0
416,223,88,0
414,222,88,0
415,219,91,0
412,216,89,0
416,220,89,0
418,226,88,0
414,226,89,0
411,226,88,0
413,229,92,0
412,226,92,0
413,223,95,0
415,225,91,0
412,224,90,0
418,231,89,0
416,230,90,0
412,228,89,0
410,227,89,0
405,235,96,0
413,235,94,0
411,241,93,0
416,247,92,0
415,242,90,0
413,249,93,0
410,241,91,0
411,244,92,0
409,246,92,0
411,252,92,0
410,253,90,0
410,253,91,0
407,251,87,0
409,248,92,0
410,251,88,0
408,254,91,0
410,256,90,0
407,257,92,0
406,256,89,0
410,253,84,0
403,252,88,0
409,256,89,0
408,258,88,0
404,262,90,0
408,263,91,0
406,261,92,0
406,259,88,0
406,258,87,0
403,264,89,0
405,271,89,0
404,270,87,0
406,269,89,0
403,266,86,0
406,266,88,0
405,265,88,0
405,269,88,0
404,272,88,0
404,266,91,0
407,266,86,0
404,264,87,0
402,262,89,0
406,262,85,0
401,270,89,0
402,277,90,0
401,270,89,0
400,269,86,0
399,269,89,0
402,272,88,0
401,278,84,0
400,279,85,0
400,280,89,0
402,280,89,0
398,279,88,0
403,281,89,0
402,279,88,0
398,282,88,0
398,290,90,0
398,289,89,0
398,287,92,0
399,286,90,0
402,284,88,0
401,289,86,0
399,292,91,0
396,292,88,0
395,291,90,0
400,291,89,0
393,285,87,0
397,285,88,0
396,286,89,0
395,291,91,0
395,286,88,0
395,282,90,0
393,283,93,0
392,279,93,0
392,280,94,0
394,281,92,0
388,282,92,0
390,283,92,0
390,284,94,0
392,278,96,0
391,275,92,0
389,280,91,0
391,286,98,0
388,283,95,0
389,281,95,0
388,278,98,0
388,275,97,0
384,277,96,0
387,275,96,0
384,281,95,0
386,279,96,0
385,273,98,0
384,272,101,0
383,272,101,0
385,272,99,0
384,273,100,0
380,278,99,0
381,273,101,0
384,269,100,0
384,266,103,0
380,266,106,0
377,265,102,0
379,266,102,0
377,265,101,0
378,256,101,0
380,262,104,0
378,256,103,0
376,257,102,0
376,258,105,0
376,258,101,0
376,252,107,0
372,249,104,0
376,246,104,0
373,248,105,0
374,243,102,0
374,242,104,0
371,245,101,0
374,240,105,0
370,241,101,0
373,237,100,0
375,237,104,0
373,235,102,0
373,237,102,0
370,237,102,0
371,237,102,0
371,233,103,0
368,232,106,0
370,235,107,0
374,240,108,0
371,244,104,0
371,244,106,0
369,241,104,0
366,237,103,0
367,241,106,0
372,247,102,0
369,250,101,0
373,250,104,0
372,252,101,0
368,247,100,0
372,241,102,0
371,248,102,0
371,248,97,0
376,251,98,0
371,251,98,0
377,247,103,0
376,245,98,0
376,244,100,0
375,245,100,0
378,248,100,0
375,241,101,0
376,244,97,0
380,243,96,0
379,252,105,0
378,238,99,0
381,244,98,0
382,248,98,0
380,248,96,0
382,246,97,0
382,244,97,0
383,243,98,0
384,244,98,0
385,242,98,0
387,246,95,0
386,237,96,0
385,239,96,0
384,239,94,0
387,234,93,0
389,236,93,0
390,240,95,0
390,238,92,0
392,241,91,0
392,235,94,0
393,232,93,0
397,233,90,0
391,237,96,0
396,237,93,0
397,239,93,0
394,237,90,0
392,237,91,0
395,239,93,0
397,240,90,0
401,239,91,0
398,246,88,0
399,241,92,0
401,244,90,0
400,240,91,0
401,244,92,0
405,243,88,0
404,246,90,0
400,247,88,0
402,249,90,0
404,244,89,0
404,242,89,0
404,248,92,0
407,248,89,0
406,256,92,0
405,254,89,0
407,258,91,0
408,253,92,0
406,257,89,0
411,260,88,0
411,263,89,0
409,273,89,0
409,272,88,0
412,270,90,0
410,265,89,0
414,262,89,0
412,267,88,0
412,274,90,0
414,275,88,0
415,269,89,0
413,266,88,0
414,265,90,0
415,270,89,0
414,269,89,0
416,278,89,0
418,275,87,0
416,275,89,0
416,273,89,0
415,268,91,0
418,276,90,0
418,276,90,0
418,285,89,0
417,282,89,0
420,281,88,0
418,275,88,0
418,280,88,0
421,278,88,0
419,283,89,0
419,284,89,0
421,283,85,0
418,282,86,0
420,278,89,0
421,281,93,0
422,281,90,0
425,289,86,0
422,286,88,0
424,288,90,0
427,286,89,0
422,282,86,0
423,286,89,0
426,292,88,0
421,292,89,0
421,289,88,0
425,289,87,0
422,285,87,0
428,290,89,0
423,290,88,0
424,298,88,0
423,300,85,0
421,304,85,0
423,300,88,0
422,299,91,0
424,299,90,0
424,307,87,0
425,315,91,0
422,316,88,0
423,319,90,0
424,312,89,0
425,316,88,0
425,324,88,0
425,333,88,0
424,335,86,0
426,336,87,0
424,339,87,0
424,335,87,0
426,341,88,0
427,340,86,0
424,351,87,0
424,347,89,0
423,350,87,0
424,345,90,0
424,343,85,0
425,343,86,0
428,346,89,0
423,356,89,0
420,354,89,0
420,348,88,0
423,343,90,0
421,343,89,0
424,341,92,0
423,344,92,0
421,345,86,0
423,339,92,0
421,340,90,0
423,334,92,0
423,337,92,0
422,335,88,0
422,340,90,0
422,336,92,0
424,331,90,0
421,324,88,0
422,325,93,0
423,322,89,0
420,329,92,0
420,325,92,0
422,323,93,0
418,320,91,0
420,313,94,0
422,312,96,0
419,311,95,0
418,315,91,0
419,314,92,0
419,310,95,0
419,304,95,0
419,301,93,0
418,298,96,0
418,297,97,0
419,297,94,0
420,301,94,0
416,296,94,0
418,288,98,0
418,287,96,0
418,285,96,0
413,283,96,0
414,278,94,0
416,276,96,0
413,274,97,0
412,270,97,0
418,266,100,0
415,269,97,0
418,275,94,0
413,271,98,0
414,270,96,0
410,266,98,0
415,266,97,0
412,268,97,0
412,267,97,0
410,276,96,0
411,270,98,0
409,269,97,0
409,264,101,0
414,268,102,0
408,269,99,0
410,272,96,0
410,271,100,0
408,269,103,0
409,265,96,0
407,263,98,0
408,258,103,0
409,256,100,0
407,258,92,0
407,260,101,0
406,256,101,0
403,251,99,0
405,250,99,0
407,248,101,0
403,247,101,0
404,248,97,0
406,248,101,0
403,241,102,0
401,236,101,0
404,237,99,0
404,237,103,0
404,240,101,0
404,241,99,0
400,236,100,0
400,234,100,0
401,230,100,0
400,232,100,0
401,232,102,0
399,232,104,0
404,229,98,0
402,229,99,0
399,226,98,0
398,222,100,0
399,223,101,0
401,224,100,0
397,227,99,0
396,224,98,0
396,222,98,0
398,215,99,0
401,217,100,0
397,218,102,0
398,218,96,0
395,219,96,0
395,217,100,0
396,218,98,0
398,219,99,0
396,222,106,0
393,219,102,0
395,220,102,0
393,217,100,0
398,216,99,0
394,218,98,0
393,214,99,0
389,218,98,0
396,217,96,0
392,224,97,0
393,220,100,0
393,217,97,0
390,218,94,0
391,217,97,0
392,224,92,0
393,224,94,0
392,222,94,0
392,220,96,0
389,220,97,0
388,220,93,0
389,221,95,0
391,227,92,0
391,228,94,0
386,226,95,0
389,228,94,0
387,224,95,0
386,221,91,0
386,228,94,0
385,231,94,0
384,235,93,0
382,235,91,0
383,229,96,0
384,228,92,0
382,230,96,0
385,232,92,0
383,235,94,0
380,240,94,0
380,235,92,0
383,234,92,0
377,233,93,0
378,237,89,0
379,239,91,0
377,238,90,0
380,237,92,0
376,245,91,0
376,234,90,0
374,235,92,0
375,236,97,0
376,238,93,0
374,241,89,0
375,246,92,0
370,239,90,0
370,237,91,0
370,237,91,0
370,236,89,0
371,243,94,0
366,235,92,0
371,236,93,0
370,234,91,0
370,230,97,0
372,238,94,0
369,242,94,0
366,242,92,0
370,242,93,0
369,239,91,0
371,239,94,0
371,238,93,0
371,243,95,0
374,247,91,0
372,250,93,0
373,247,97,0
374,245,94,0
378,242,94,0
376,244,96,0
376,243,96,0
375,248,91,0
378,249,95,0
382,247,96,0
379,244,97,0
380,240,100,0
382,244,97,0
385,247,98,0
381,249,94,0
383,247,98,0
383,245,97,0
385,244,99,0
388,248,101,0
384,248,96,0
389,252,97,0
388,252,95,0
390,253,100,0
390,256,100,0
389,281,100,0
396,318,105,0
392,348,112,0
390,350,113,0
391,345,115,0
393,340,118,0
396,338,122,0
395,331,124,0
398,328,120,0
397,335,120,0
397,341,120,0
398,337,122,0
399,336,122,0
400,328,124,0
399,330,122,0
400,330,121,0
402,330,119,0
401,325,122,0
400,326,123,0
400,319,125,0
407,318,129,0
405,311,125,0
405,320,126,0
404,320,128,0
409,319,133,0
411,315,135,0
406,307,137,0
408,303,139,0
410,305,142,0
409,312,144,0
410,315,139,0
409,311,140,0
410,302,145,0
412,300,153,0
413,297,159,0
410,296,157,0
413,296,154,0
416,304,154,0
413,325,156,0
415,344,162,0
414,348,163,0
418,360,159,0
415,374,170,0
412,368,169,0
413,362,174,0
413,351,176,0
416,344,178,0
415,337,179,0
416,330,174,0
418,328,171,0
417,331,179,0
416,340,176,0
415,329,184,0
416,328,184,0
418,320,180,0
417,313,177,0
420,324,172,0
417,346,173,0
419,349,179,0
416,354,200,0
420,350,199,0
419,342,201,0
419,339,214,0
418,361,224,0
422,412,228,0
423,402,238,0
421,404,256,0
415,393,263,0
418,411,261,0
416,403,258,0
422,435,256,0
416,451,254,0
416,436,247,0
417,434,247,0
418,461,245,0
417,469,236,0
419,454,233,0
418,443,232,0
418,431,235,0
418,441,230,0
420,456,236,0
415,473,230,0
422,461,224,0
416,473,217,0
421,490,212,0
422,516,219,0
420,503,243,0
424,505,244,0
420,491,236,0
417,474,227,0
418,465,226,0
420,454,231,0
420,456,243,0
418,467,259,0
417,463,265,0
416,471,280,0
420,482,274,0
416,488,275,0
420,476,288,0
420,464,307,0
419,464,308,0
418,459,302,0
417,466,294,0
418,458,288,0
414,440,285,0
417,431,299,0
415,429,308,0
420,433,302,0
418,428,298,0
417,430,293,0
417,432,290,0
416,421,299,0
417,441,315,0
419,435,319,0
413,436,315,0
414,444,311,0
413,439,310,0
415,438,312,0
416,443,309,0
418,480,315,0
413,467,306,0
413,478,317,0
416,468,315,0
414,453,326,0
410,439,334,0
411,438,334,0
409,439,337,0
412,459,334,0
408,463,332,0
412,464,320,0
411,492,315,0
414,501,350,0
411,501,378,0
409,494,374,0
408,482,364,0
406,476,353,0
413,478,360,0
406,471,357,0
409,503,372,0
407,504,382,0
406,505,371,0
405,492,361,0
409,504,354,0
405,493,362,0
405,492,385,0
401,489,372,0
405,493,375,0
404,518,367,0
404,544,360,0
406,564,354,0
402,560,344,0
400,580,345,0
401,562,342,0
402,557,336,0
399,552,344,0
403,563,348,0
399,593,338,0
399,639,331,0
401,652,379,0
399,672,398,0
395,667,388,0
397,683,387,0
401,686,412,0
394,694,430,0
394,742,422,0
396,727,429,0
398,720,437,0
395,706,419,0
395,707,407,0
393,687,399,0
391,664,396,0
392,657,391,0
394,638,390,0
392,675,393,0
391,764,381,0
389,749,371,0
393,801,420,0
389,785,427,0
388,773,416,0
386,758,400,0
389,763,395,0
389,755,384,0
386,759,389,0
384,745,417,0
385,765,423,0
389,797,413,0
385,805,409,0
384,819,397,0
385,820,392,0
385,806,386,0
382,817,381,0
383,801,374,0
382,780,385,0
381,774,390,0
383,790,376,0
382,793,368,0
379,804,391,0
381,777,389,0
378,762,378,0
382,761,370,0
379,746,363,0
376,723,354,0
378,736,349,0
379,732,337,0
377,757,325,0
379,807,316,0
374,813,315,0
376,803,312,0
377,778,332,0
375,757,348,0
374,740,340,0
374,714,324,0
374,717,327,0
376,703,328,0
371,688,317,0
373,708,308,0
373,698,296,0
374,672,288,0
370,654,278,0
374,625,274,0
372,615,265,0
373,614,260,0
374,673,264,0
370,649,273,0
373,705,278,0
373,714,283,0
371,787,281,0
370,831,270,0
371,841,267,0
371,838,266,0
370,820,259,0
371,813,250,0
368,782,245,0
371,774,245,0
370,759,266,0
371,775,268,0
371,774,285,0
367,863,304,0
372,853,301,0
372,876,293,0
370,852,288,0
368,853,276,0
366,845,269,0
366,855,280,0
370,831,277,0
369,803,266,0
371,781,262,0
369,749,254,0
372,727,251,0
369,705,271,0
368,694,265,0
370,678,273,0
373,693,320,0
377,685,329,0
374,693,318,0
377,692,311,0
377,731,299,0
374,748,288,0
374,776,282,0
381,782,281,0
375,757,270,0
378,754,279,0
379,731,271,0
380,715,270,0
380,703,262,0
384,703,256,0
380,745,245,0
388,785,236,0
388,796,242,0
386,778,242,0
388,783,268,0
388,772,260,0
391,778,266,0
389,811,271,0
391,808,260,0
394,798,258,0
393,817,254,0
398,813,252,0
396,852,242,0
395,860,238,0
399,834,236,0
402,811,228,0
396,783,224,0
405,779,219,0
400,760,209,0
406,775,207,0
404,800,206,0
404,806,218,0
408,802,212,0
406,817,206,0
410,805,203,0
409,785,197,0
410,815,193,0
411,788,208,0
413,766,205,0
413,747,208,0
417,779,204,0
417,785,203,0
415,795,200,0
422,820,196,0
422,853,201,0
422,863,262,0
420,854,263,0
420,864,263,0
418,835,272,0
423,810,268,0
422,785,259,0
424,761,247,0
426,745,243,0
425,726,239,0
426,700,232,0
427,684,225,0
423,669,227,0
428,687,220,0
431,661,214,0
432,641,210,0
431,624,204,0
434,607,205,0
434,586,222,0
431,579,240,0
432,571,232,0
432,568,230,0
433,563,236,0
434,549,228,0
434,540,227,0
435,526,228,0
444,506,230,0
437,506,246,0
439,553,245,0
435,570,266,0
440,577,297,0
438,564,301,0
439,596,295,0
438,579,290,0
439,574,290,0
442,569,284,0
440,602,281,0
440,620,283,0
441,610,288,0
444,596,277,0
440,591,271,0
443,569,264,0
444,553,261,0
443,539,261,0
442,529,248,0
445,544,245,0
447,549,237,0
445,556,231,0
445,544,224,0
445,524,219,0
444,528,212,0
447,510,219,0
449,498,221,0
452,539,215,0
449,556,222,0
446,554,224,0
451,556,235,0
448,539,245,0
452,563,240,0
447,553,233,0
454,537,240,0
451,529,248,0
450,514,256,0
453,501,258,0
449,491,250,0
448,485,244,0
451,508,243,0
453,504,234,0
449,493,230,0
451,477,224,0
450,470,223,0
452,473,238,0
453,496,240,0
447,482,241,0
451,503,243,0
451,507,243,0
452,490,239,0
452,481,234,0
453,492,233,0
452,506,230,0
453,525,234,0
448,516,235,0
452,507,232,0
451,493,224,0
447,490,224,0
448,477,217,0
449,466,224,0
453,466,273,0
447,459,266,0
450,456,266,0
453,462,278,0
452,494,279,0
451,477,285,0
448,491,280,0
451,517,275,0
450,504,273,0
450,489,267,0
448,489,259,0
452,480,251,0
451,485,245,0
447,493,240,0
449,484,232,0
448,508,226,0
447,501,220,0
447,483,215,0
448,480,212,0
448,483,210,0
449,590,211,0
447,659,207,0
448,785,202,0
445,767,199,0
446,751,200,0
450,727,205,0
448,705,202,0
443,686,197,0
443,693,204,0
445,692,205,0
446,703,206,0
444,692,208,0
445,675,204,0
444,652,204,0
446,634,196,0
445,662,202,0
445,699,197,0
442,694,194,0
441,692,189,0
444,685,186,0
445,670,184,0
441,645,180,0
444,640,185,0
440,627,182,0
442,638,185,0
441,643,175,0
439,644,191,0
443,630,186,0
443,614,184,0
440,616,181,0
438,597,178,0
441,584,189,0
435,583,195,0
437,571,193,0
438,559,192,0
437,548,194,0
437,542,193,0
438,546,197,0
436,528,194,0
439,564,197,0
436,593,192,0
434,597,201,0
437,612,197,0
436,602,193,0
434,598,192,0
434,588,188,0
434,575,182,0
436,566,181,0
432,554,182,0
431,552,192,0
432,544,188,0
433,527,193,0
432,516,192,0
432,502,188,0
428,487,182,0
428,492,176,0
432,478,178,0
435,468,173,0
428,473,167,0
431,469,166,0
427,461,162,0
429,460,176,0
434,451,180,0
425,440,177,0
429,430,177,0
427,426,176,0
424,411,173,0
427,403,169,0
426,405,167,0
429,392,162,0
429,385,164,0
425,375,160,0
422,377,173,0
427,370,179,0
426,368,178,0
423,365,177,0
422,391,176,0
424,395,180,0
424,387,180,0
425,382,177,0
421,381,169,0
423,391,169,0
422,388,168,0
423,386,166,0
419,405,163,0
418,396,160,0
424,391,169,0
421,394,171,0
419,385,173,0
422,374,166,0
417,373,173,0
422,366,173,0
421,365,168,0
419,396,163,0
420,397,160,0
422,388,157,0
421,384,157,0
415,373,152,0
417,368,154,0
418,383,186,0
419,373,198,0
418,364,197,0
416,360,196,0
412,358,190,0
419,351,190,0
416,359,187,0
415,354,183,0
419,345,178,0
421,339,176,0
415,333,175,0
416,342,178,0
414,343,174,0
416,357,179,0
416,359,168,0
413,356,167,0
412,348,161,0
408,340,157,0
417,344,156,0
413,351,151,0
413,357,155,0
412,349,157,0
414,353,166,0
412,356,168,0
412,343,170,0
414,357,176,0
416,426,176,0
412,436,177,0
415,438,179,0
412,457,177,0
409,440,174,0
408,439,171,0
413,430,184,0
413,431,184,1
410,433,179,1
414,429,176,1
410,422,185,1
414,416,181,1
408,410,180,1
409,406,177,1
409,424,178,1
409,421,180,1
412,425,175,1
407,427,177,1
408,422,174,1
411,420,169,1
407,446,169,1
412,438,163,1
409,450,166,1
408,452,162,1
407,450,175,1
408,441,177,1
408,429,170,1
408,440,171,1
406,451,170,1
407,445,165,1
405,460,165,1
404,455,161,1
405,444,161,1
398,436,154,1
407,430,158,1
406,428,157,1
405,419,153,1
404,405,150,1
406,393,146,1
400,391,158,1
402,384,157,1
405,385,151,1
404,376,152,1
408,368,150,1
404,357,149,1
402,351,144,1
406,352,143,1
401,350,149,1
406,377,155,1
402,381,157,1
402,390,160,1
399,382,160,1
401,384,165,1
403,378,168,1
403,365,170,1
401,354,168,1
399,352,164,1
400,343,158,1
396,334,161,1
397,326,155,1
398,336,156,1
396,328,155,1
395,329,151,1
395,322,152,1
394,328,158,1
398,340,157,1
394,341,154,1
397,353,168,1
393,345,172,1
389,339,166,1
391,348,181,1
390,381,197,1
386,394,194,1
389,420,200,1
392,465,194,1
386,496,190,1
386,508,189,1
386,502,192,1
387,498,192,1
384,487,185,1
386,489,182,1
386,482,182,1
384,477,184,1
383,476,192,1
382,516,198,1
380,513,203,1
378,560,217,1
379,546,219,1
380,539,225,1
380,545,219,1
379,534,216,1
377,521,216,1
377,526,216,1
376,534,208,1
377,525,210,1
376,555,206,1
375,573,198,1
373,617,230,1
371,601,227,1
370,584,228,1
371,578,231,1
371,579,223,1
372,590,236,1
369,572,230,1
368,567,223,1
371,559,226,1
369,553,260,1
372,621,274,1
371,652,290,1
367,667,280,1
368,671,270,1
371,659,264,1
370,638,254,1
373,642,248,1
367,619,235,1
371,621,241,1
371,602,268,1
373,603,259,1
374,618,256,1
372,608,253,1
371,618,246,1
376,634,244,1
373,648,240,1
377,631,237,1
373,623,234,1
378,632,231,1
378,614,228,1
377,596,224,1
378,598,219,1
380,587,221,1
379,574,254,1
377,558,263,1
383,617,268,1
386,641,269,1
382,684,275,1
386,679,269,1
383,663,265,1
385,666,252,1
387,648,250,1
385,634,246,1
386,616,239,1
386,591,235,1
386,581,233,1
388,577,228,1
389,560,228,1
391,557,227,1
393,562,233,1
389,544,223,1
391,527,219,1
392,554,214,1
391,577,218,1
391,585,260,1
396,572,280,1
396,567,306,1
392,558,303,1
397,567,291,1
398,576,301,1
397,589,297,1
399,584,298,1
401,583,292,1
398,590,281,1
400,616,272,1
397,613,264,1
403,596,258,1
399,576,268,1
398,561,288,1
402,554,290,1
403,541,292,1
407,565,313,1
403,565,325,1
406,582,333,1
404,581,326,1
404,573,314,1
406,564,313,1
407,597,324,1
403,609,332,1
404,641,353,1
405,649,357,1
407,640,363,1
406,701,362,1
406,710,402,1
408,686,418,1
407,703,430,1
409,682,427,1
407,684,419,1
406,675,408,1
406,693,398,1
410,691,385,1
410,716,376,1
409,735,372,1
410,757,367,1
413,734,364,1
407,711,349,1
413,694,342,1
410,679,330,1
409,665,322,1
412,693,332,1
414,688,334,1
410,708,361,1
412,698,362,1
408,693,351,1
411,714,339,1
411,700,328,1
411,680,321,1
415,685,312,1
412,698,302,1
415,688,300,1
413,676,300,1
414,656,292,1
415,636,290,1
413,626,282,1
413,615,280,1
414,608,320,1
418,618,336,1
414,600,348,1
416,589,336,1
414,582,329,1
416,594,333,1
412,584,320,1
415,565,313,1
420,558,302,1
417,545,296,1
416,536,285,1
417,524,289,1
417,533,272,1
417,540,282,1
418,576,277,1
417,585,270,1
420,595,264,1
417,605,302,1
417,615,320,1
419,640,332,1
418,633,328,1
421,613,346,1
416,595,346,1
416,590,341,1
415,579,334,1
417,572,329,1
416,558,341,1
418,565,340,1
419,572,338,1
419,574,330,1
416,564,341,1
417,555,337,1
416,553,332,1
417,540,346,1
420,543,336,1
420,573,362,1
420,613,372,1
417,627,392,1
415,667,380,1
418,658,378,1
417,656,384,1
420,716,387,1
416,744,374,1
414,739,375,1
419,747,363,1
414,731,374,1
419,721,382,1
414,730,376,1
421,726,366,1
417,714,356,1
418,697,344,1
416,673,335,1
417,656,327,1
419,632,323,1
413,624,312,1
419,608,313,1
417,598,304,1
420,602,306,1
416,656,332,1
415,676,325,1
417,694,314,1
417,747,317,1
415,740,346,1
416,717,343,1
414,706,349,1
410,683,340,1
415,710,331,1
418,709,325,1
414,703,312,1
415,697,309,1
414,687,303,1
410,663,296,1
417,680,292,1
419,687,292,1
416,683,293,1
417,674,296,1
417,670,296,1
417,704,306,1
417,691,365,1
417,673,374,1
411,651,374,1
411,635,365,1
417,617,373,1
414,599,362,1
413,605,356,1
414,611,348,1
413,608,338,1
411,588,342,1
408,594,387,1
411,599,381,1
412,603,373,1
414,600,361,1
411,592,358,1
407,580,357,1
411,567,342,1
413,547,332,1
411,538,380,1
411,567,424,1
415,563,416,1
412,563,410,1
413,568,424,1
412,547,415,1
411,546,438,1
412,574,502,1
414,606,486,1
415,655,468,1
411,635,449,1
408,620,434,1
408,612,415,1
410,597,413,1
406,611,401,1
407,619,392,1
408,614,381,1
410,611,367,1
406,591,354,1
407,576,362,1
410,559,405,1
409,542,400,1
407,536,387,1
407,528,388,1
410,513,377,1
406,502,380,1
404,496,384,1
408,490,398,1
408,511,394,1
408,496,381,1
406,486,366,1
407,485,368,1
405,492,384,1
410,482,369,1
410,470,362,1
409,461,353,1
408,451,425,1
409,502,453,1
407,492,440,1
403,485,423,1
407,514,417,1
404,514,404,1
404,512,413,1
406,502,419,1
406,486,403,1
405,478,397,1
404,461,390,1
404,455,400,1
406,446,417,1
408,466,410,1
404,467,391,1
406,488,381,1
406,491,371,1
404,487,366,1
400,487,376,1
403,483,448,1
408,508,463,1
403,509,470,1
402,497,456,1
404,494,458,1
401,491,451,1
400,513,442,1
402,498,453,1
403,498,461,1
405,497,446,1
401,486,432,1
399,467,418,1
399,453,433,1
400,447,430,1
400,449,420,1
401,478,407,1
398,473,413,1
398,465,399,1
401,481,391,1
397,492,381,1
401,487,367,1
401,473,357,1
398,464,350,1
400,454,344,1
400,466,365,1
400,457,357,1
400,491,345,1
400,504,341,1
400,543,342,1
399,542,344,1
399,530,372,1
396,531,364,1
397,532,353,1
394,536,354,1
396,522,367,1
397,520,360,1
394,513,347,1
396,504,339,1
394,491,326,1
393,484,352,1
393,498,388,1
394,497,399,1
391,486,388,1
392,497,377,1
390,497,358,1
390,483,357,1
392,471,357,1
387,497,368,1
389,482,360,1
389,491,367,1
388,489,356,1
386,474,347,1
388,463,365,1
388,478,377,1
383,465,386,1
382,476,388,1
385,472,378,1
383,484,363,1
384,473,359,1
383,488,360,1
382,490,367,1
382,472,364,1
379,459,350,1
380,449,351,1
381,448,337,1
380,445,333,1
378,443,322,1
382,435,315,1
380,422,301,1
376,427,301,1
376,438,314,1
378,437,323,1
374,447,313,1
375,431,310,1
374,424,315,1
370,418,312,1
377,447,305,1
372,479,292,1
374,525,300,1
371,525,296,1
373,518,299,1
374,518,308,1
371,511,327,1
373,500,344,1
372,490,339,1
373,480,325,1
369,468,320,1
370,459,309,1
371,457,298,1
370,449,301,1
374,446,301,1
369,439,344,1
374,458,340,1
373,449,329,1
373,489,323,1
368,477,316,1
371,492,308,1
375,488,315,1
376,491,317,1
375,476,337,1
376,477,341,1
376,469,349,1
374,467,336,1
378,474,324,1
378,465,325,1
377,466,334,1
376,471,343,1
381,474,345,1
382,463,333,1
380,449,327,1
377,451,315,1
376,435,336,1
384,427,345,1
381,414,347,1
385,406,346,1
385,407,337,1
384,406,322,1
383,402,314,1
384,393,309,1
387,384,309,1
385,375,329,1
386,364,320,1
390,375,310,1
388,378,311,1
388,376,312,1
390,374,340,1
391,379,372,1
392,373,368,1
392,362,357,1
393,373,345,1
394,367,333,1
391,358,349,1
397,359,374,1
394,354,363,1
396,354,350,1
397,353,341,1
397,348,330,1
395,354,322,1
399,355,310,1
397,343,301,1
400,341,299,1
398,344,305,1
396,336,306,1
398,341,306,1
405,337,308,1
403,331,313,1
402,344,320,1
402,337,317,1
403,332,323,1
407,326,316,1
405,317,322,1
405,333,344,1
408,392,347,1
404,383,339,1
404,419,337,1
408,430,332,1
406,432,318,1
406,424,314,1
410,412,301,1
409,404,293,1
407,404,297,1
412,399,301,1
412,392,297,1
409,381,290,1
410,372,284,1
414,371,297,1
410,379,285,1
412,396,281,1
411,411,281,1
413,402,296,1
410,394,288,1
414,406,294,1
412,418,289,1
410,405,279,1
414,397,271,1
414,396,279,1
413,391,313,1
414,394,304,1
414,384,302,1
414,376,314,1
414,374,304,1
414,370,295,1
416,397,288,1
417,433,280,1
414,444,327,1
418,442,349,1
414,457,336,1
416,465,339,1
417,453,328,1
417,441,317,1
417,439,308,1
416,435,307,1
420,423,303,1
422,411,301,1
415,404,302,1
421,410,297,1
419,404,288,1
421,410,280,1
418,402,274,1
419,393,266,1
422,389,270,1
420,407,285,1
422,427,295,1
421,431,286,1
418,459,279,1
418,456,272,1
416,457,280,1
421,451,274,1
425,448,268,1
421,473,267,1
421,470,262,1
419,514,264,1
418,503,260,1
420,494,257,1
419,480,248,1
421,481,247,1
420,469,244,1
421,461,236,1
421,447,262,1
418,456,265,1
421,464,260,1
419,446,252,1
421,453,246,1
417,439,254,1
420,430,247,1
416,417,241,1
421,411,234,1
422,414,232,1
422,434,223,1
420,439,218,1
421,439,213,1
420,432,212,1
418,417,206,1
419,418,204,1
419,411,196,1
420,403,204,1
419,395,203,1
421,385,231,1
418,376,241,1
425,401,233,1
420,394,229,1
420,403,220,1
420,399,219,1
418,402,224,1
420,424,229,1
424,465,233,1
418,468,231,1
418,505,229,1
419,494,236,1
420,475,225,1
416,462,220,1
420,452,222,1
416,439,218,1
417,429,212,1
416,435,206,1
418,438,204,1
420,427,200,1
419,428,234,1
418,432,236,1
414,428,241,1
417,435,243,1
415,429,237,1
416,433,232,1
415,437,229,1
414,428,222,1
414,422,213,1
417,420,221,1
417,416,222,1
416,410,224,1
416,408,241,1
414,402,232,1
416,413,229,1
414,406,261,1
415,411,258,1
410,400,248,1
415,391,247,1
413,380,239,1
413,396,237,1
412,386,233,1
415,384,225,1
415,387,227,1
414,383,226,1
412,378,221,1
410,366,220,1
415,373,238,1
416,382,248,1
410,388,242,1
414,395,234,1
412,390,227,1
411,391,222,1
411,391,217,1
412,441,233,1
409,466,232,1
410,489,232,1
408,483,221,1
409,473,216,1
409,455,220,1
412,446,216,1
416,442,220,1
411,444,217,1
409,454,221,1
410,443,214,1
409,437,214,1
410,447,205,1
412,438,204,1
408,427,198,1
409,414,217,1
409,403,214,1
409,393,212,1
412,389,210,1
408,381,208,1
410,370,203,1
408,376,224,1
411,373,243,1
406,363,253,1
408,363,245,1
410,362,256,1
409,360,249,1
404,356,246,1
406,347,240,1
409,350,238,1
406,362,257,1
405,366,254,1
410,364,246,1
406,363,248,1
406,381,246,1
407,376,237,1
407,371,231,1
404,377,222,1
406,367,221,1
405,360,211,1
402,347,208,1
403,354,206,1
407,353,207,1
402,348,198,1
404,338,194,1
402,333,192,1
405,326,186,1
403,326,185,1
404,320,185,1
404,334,189,1
401,365,191,1
402,395,184,1
404,398,184,1
402,404,184,1
405,395,183,1
405,397,183,1
404,391,177,1
403,387,175,1
400,387,169,1
397,383,177,1
400,393,175,1
397,396,176,1
398,388,174,1
400,384,193,1
404,452,201,1
399,494,214,1
401,520,216,1
400,517,207,1
397,520,204,1
397,540,200,1
394,540,198,1
394,532,196,1
396,519,194,1
397,530,187,1
394,523,192,1
393,512,192,1
388,510,190,1
395,516,195,1
394,507,236,1
393,491,239,1
389,479,239,1
392,474,235,1
390,459,231,1
392,455,227,1
388,466,219,1
388,455,217,1
389,458,216,1
384,453,224,1
386,447,222,1
385,434,213,1
384,431,217,1
385,419,218,1
384,418,217,1
382,415,213,1
384,419,209,1
381,412,233,1
378,427,229,1
379,432,221,1
381,423,219,1
378,417,216,1
376,420,248,1
377,404,270,1
380,402,278,1
377,418,273,1
375,411,265,1
373,412,258,1
370,406,249,1
376,399,243,1
376,391,236,1
369,390,228,1
374,383,223,1
373,377,218,1
370,368,215,1
370,361,218,1
369,353,217,1
368,353,220,1
371,354,225,1
370,348,220,1
371,342,217,1
368,333,216,1
371,331,242,1
374,330,237,1
368,322,233,1
373,318,232,1
375,323,236,1
373,320,234,1
369,346,232,1
372,362,223,1
371,370,218,1
370,370,212,1
377,362,206,1
373,354,206,1
374,346,196,1
375,343,193,1
374,334,192,1
379,328,193,1
378,324,188,1
376,316,187,1
382,320,182,1
379,358,186,1
376,393,173,1
377,407,186,1
382,411,206,1
378,399,216,1
383,390,222,1
384,384,233,1
384,384,232,1
380,380,231,1
387,376,223,1
385,378,226,1
391,381,243,1
389,406,235,1
389,392,233,1
388,382,231,1
391,381,232,1
391,385,240,1
386,377,236,1
392,370,229,1
393,387,229,1
395,385,246,1
394,377,240,1
397,369,238,1
398,362,233,1
395,352,228,1
397,347,228,1
399,337,233,1
396,339,236,1
399,336,267,1
404,338,263,1
400,338,275,1
404,336,274,1
399,330,269,1
401,329,264,1
403,329,265,1
401,345,268,1
404,356,272,1
405,349,261,1
407,346,257,1
406,333,248,1
406,327,239,1
404,316,236,1
406,324,259,1
409,316,272,1
405,330,264,1
406,329,259,1
408,334,254,1
410,329,261,1
405,326,293,1
410,334,285,1
411,366,292,1
410,384,313,1
415,402,335,1
411,401,336,1
409,401,326,1
410,391,315,1
410,400,306,1
413,390,303,1
413,390,295,1
408,380,294,1
412,387,288,1
411,375,278,1
411,366,267,1
412,365,262,1
416,371,260,1
413,359,251,1
416,352,246,1
412,344,242,1
417,336,244,1
413,342,251,1
417,340,245,1
419,338,238,1
413,328,235,1
417,322,229,1
416,318,223,1
418,337,218,1
418,365,224,1
419,378,237,1
416,378,231,1
418,384,227,1
423,382,222,1
417,376,213,1
421,367,215,1
422,369,213,1
420,394,213,1
419,394,211,1
419,386,208,1
419,384,206,1
422,387,210,1
419,375,220,1
418,370,242,1
423,365,238,1
420,364,231,1
420,363,230,1
420,362,222,1
422,359,214,1
421,356,208,1
421,350,215,1
417,347,220,1
419,352,212,1
419,346,205,1
423,346,204,1
421,349,210,1
422,342,215,1
422,333,211,1
420,325,202,1
417,328,197,1
421,322,201,1
421,317,193,1
423,321,192,1
422,348,193,1
420,368,194,1
419,359,188,1
421,351,203,1
422,341,207,1
421,336,206,1
419,334,204,1
425,350,239,1
424,355,242,1
419,379,236,1
420,384,235,1
421,377,232,1
419,371,238,1
419,365,235,1
419,362,226,1
421,371,222,1
421,378,217,1
420,372,210,1
421,394,206,1
418,445,210,1
422,463,212,1
419,493,207,1
421,497,206,1
420,484,202,1
417,470,199,1
416,475,197,1
420,472,212,1
418,484,225,1
418,532,227,1
419,524,231,1
416,508,229,1
421,510,256,1
421,501,258,1
421,487,272,1
417,471,267,1
420,458,264,1
418,449,257,1
419,459,248,1
422,459,244,1
418,476,235,1
417,518,241,1
418,512,244,1
417,499,238,1
419,488,233,1
414,471,224,1
417,459,243,1
420,471,275,1
418,475,276,1
416,473,265,1
416,481,262,1
414,494,259,1
413,495,279,1
415,484,282,1
418,473,282,1
418,465,275,1
413,463,274,1
416,462,270,1
414,466,264,1
416,517,256,1
415,514,246,1
412,507,241,1
415,487,233,1
417,474,230,1
416,502,225,1
413,492,219,1
416,500,219,1
411,502,213,1
414,488,220,1
413,480,256,1
416,478,260,1
410,458,250,1
411,448,248,1
407,432,236,1
412,425,249,1
418,418,250,1
409,403,248,1
414,401,270,1
408,395,280,1
416,386,283,1
411,428,281,1
409,429,276,1
412,460,271,1
411,453,270,1
410,440,275,1
411,436,280,1
408,439,285,1
411,431,284,1
407,419,276,1
411,418,271,1
410,413,268,1
409,415,260,1
409,418,261,1
408,413,254,1
412,403,251,1
408,390,243,1
409,388,246,1
407,378,234,1
408,380,230,1
408,391,234,1
408,392,240,1
408,390,236,1
410,378,231,1
406,379,244,1
407,377,241,1
409,372,242,1
408,366,257,1
404,358,256,1
407,356,247,1
405,347,238,1
405,346,238,1
406,341,242,1
406,331,316,1
409,335,319,1
405,377,309,1
405,398,300,1
406,408,307,1
409,454,349,1
405,506,356,1
407,599,351,1
405,609,337,1
404,591,330,1
404,572,320,1
403,572,309,1
406,556,300,1
405,540,296,1
405,527,289,1
401,507,282,1
404,505,276,1
404,491,266,1
408,474,258,1
401,470,256,1
402,463,274,1
404,468,272,1
403,501,286,1
399,507,278,1
401,512,272,1
400,516,266,1
402,503,258,1
400,490,272,1
400,486,282,1
401,477,274,1
401,483,268,1
400,500,262,1
401,532,256,1
403,533,266,1
398,521,257,1
401,524,250,1
398,512,247,1
401,528,244,1
402,566,234,1
400,634,240,1
398,618,233,1
401,604,240,1
400,589,282,1
399,607,305,1
396,624,304,1
399,653,302,1
395,644,289,1
395,630,279,1
396,610,274,1
394,590,267,1
393,599,258,1
394,582,256,1
394,572,247,1
388,552,251,1
392,538,250,1
392,524,242,1
390,537,233,1
393,539,256,1
391,529,258,1
386,514,257,1
389,515,256,1
385,509,272,1
386,500,267,1
386,486,264,1
387,476,257,1
382,517,269,1
384,580,286,1
381,612,284,1
383,694,282,1
385,723,280,1
383,720,275,1
381,706,268,1
378,688,258,1
377,671,254,1
380,650,247,1
379,633,239,1
376,616,232,1
378,606,229,1
374,586,223,1
379,578,251,1
376,561,300,1
377,572,305,1
376,553,302,1
374,550,301,1
373,539,292,1
374,544,284,1
374,528,278,1
375,518,274,1
374,501,293,1
372,506,292,1
377,496,285,1
370,529,274,1
374,539,268,1
374,530,264,1
376,519,252,1
374,505,248,1
375,489,257,1
375,474,286,1
376,493,287,1
376,487,276,1
378,501,269,1
378,491,262,1
377,491,262,1
377,534,278,1
377,560,269,1
379,573,269,1
380,568,261,1
382,549,256,1
382,550,261,1
381,547,261,1
380,528,258,1
385,517,283,1
384,525,277,1
384,527,270,1
381,509,258,1
384,496,256,1
382,481,246,1
384,468,248,1
386,465,253,1
389,489,272,1
389,509,293,1
388,538,300,1
390,540,298,1
387,539,290,1
392,531,282,1
391,530,272,1
390,528,263,1
391,534,252,1
395,520,260,1
394,506,253,1
393,487,251,1
398,480,249,1
397,502,269,1
397,489,319,1
397,476,328,1
402,485,326,1
398,496,316,1
398,497,304,1
400,483,304,1
398,491,291,1
402,497,282,1
403,484,274,1
403,471,267,1
403,456,278,1
404,450,272,1
402,459,272,1
405,444,265,1
404,438,256,1
403,443,257,1
406,435,253,1
407,422,249,1
410,411,246,1
405,409,240,1
408,421,239,1
408,413,231,1
405,401,223,1
404,389,220,1
407,383,213,1
409,377,208,1
409,370,205,1
413,360,199,1
410,350,195,1
412,344,203,1
409,351,212,1
414,399,218,1
410,424,247,1
413,483,260,1
414,489,252,1
411,489,246,1
409,475,239,1
409,471,235,1
412,466,231,1
413,459,229,1
421,442,262,1
411,428,261,1
414,420,277,1
409,425,281,1
414,429,295,1
412,423,296,1
417,426,302,1
415,420,294,1
415,421,286,1
416,414,278,1
414,401,279,1
416,397,291,1
412,393,285,1
415,380,277,1
415,367,268,1
418,361,261,1
413,352,257,1
413,343,248,1
416,339,244,1
414,336,244,1
413,328,238,1
413,320,235,1
412,313,223,1
412,308,218,1
415,302,213,1
415,294,209,1
410,295,204,1
414,290,203,1
416,300,199,1
409,302,200,1
412,307,215,1
414,309,214,1
413,300,206,1
415,299,204,1
414,311,201,1
414,313,199,1
416,316,193,1
412,322,190,1
410,316,182,1
410,309,177,1
412,304,185,1
411,300,183,1
419,295,185,1
413,285,176,1
415,283,179,1
411,275,177,1
409,268,170,1
411,268,168,1
409,264,167,1
412,260,164,1
414,254,161,1
412,247,153,1
409,245,156,1
410,242,152,1
411,236,154,1
410,234,149,1
409,228,145,1
410,229,142,1
408,226,144,1
410,224,144,1
408,224,144,1
411,238,140,1
408,246,137,1
407,249,136,1
414,245,154,1
408,243,171,1
414,236,171,1
408,234,176,1
411,230,179,1
409,226,177,1
412,221,176,1
411,219,170,1
409,211,174,1
413,240,190,1
409,267,196,1
408,270,192,1
407,266,189,1
409,254,192,1
410,254,188,1
409,249,182,1
409,244,178,1
409,241,175,1
406,235,174,1
405,235,169,1
407,231,168,1
411,227,163,1
406,219,157,1
410,222,157,1
412,217,154,1
408,216,162,1
406,211,160,1
407,217,171,1
409,222,182,1
408,227,182,1
413,224,178,1
408,225,175,1
408,225,172,1
407,221,170,1
409,215,164,1
409,213,161,1
412,216,166,1
408,215,158,1
409,208,160,1
409,204,154,1
412,203,151,1
409,201,146,1
408,212,151,1
410,224,156,1
409,226,150,1
410,226,150,1
410,228,156,1
412,238,153,1
402,242,152,1
406,234,151,1
408,239,154,1
408,227,150,1
410,231,147,1
409,233,146,1
413,229,144,1
410,226,140,1
411,227,140,1
411,224,139,1
410,227,135,1
408,226,134,1
413,225,132,1
410,227,129,1
409,227,128,1
411,232,130,1
409,234,128,1
412,238,123,1
410,240,125,1
415,241,124,1
410,236,124,1
413,240,119,1
414,243,122,1
412,246,120,1
413,254,123,1
415,256,121,1
412,256,124,1
415,260,124,1
412,262,118,1
415,262,120,1
412,265,124,1
414,262,120,1
413,268,122,1
416,269,122,1
416,269,119,1
416,278,124,1
416,286,129,1
417,303,139,1
419,298,140,1
418,313,134,1
416,326,134,1
422,322,144,1
420,316,154,1
416,317,163,1
419,330,162,1
417,332,154,1
420,333,155,1
420,329,149,1
421,333,149,1
420,335,148,1
421,340,148,1
417,336,145,1
419,333,142,1
422,335,143,1
420,340,137,1
421,350,145,1
424,366,145,1
421,373,147,1
422,369,147,1
419,359,147,1
424,360,144,1
424,367,142,1
424,372,149,1
425,380,150,1
420,394,161,1
425,385,159,1
425,388,154,1
425,379,152,1
424,378,150,1
425,380,148,1
425,383,153,1
424,382,153,1
427,379,150,1
424,371,145,1
424,364,144,1
427,373,146,1
427,379,145,1
426,381,149,1
428,380,148,1
423,376,142,1
425,376,144,1
426,375,145,1
424,377,144,1
425,384,147,1
428,382,146,1
422,379,143,1
426,372,138,1
428,370,141,1
427,376,139,1
423,375,137,1
427,371,138,1
427,366,136,1
424,365,138,1
422,365,132,1
424,361,137,1
424,356,135,1
424,360,145,1
421,372,141,1
420,367,140,1
421,359,136,1
422,350,135,1
422,351,134,1
421,345,132,1
421,350,133,1
420,341,129,1
416,332,128,1
418,331,125,1
414,334,134,1
416,325,133,1
416,326,131,1
414,317,128,1
414,311,128,1
414,306,130,1
413,299,126,1
412,294,125,1
413,291,128,1
412,290,128,1
414,289,124,1
410,284,126,1
406,276,126,1
408,275,121,1
409,270,119,1
408,273,120,1
406,266,122,1
404,263,122,1
401,260,116,1
405,259,116,1
403,257,118,1
402,256,116,1
405,252,118,1
401,250,114,1
400,248,115,1
400,252,113,1
400,248,114,1
401,243,116,1
400,236,111,1
399,233,114,1
398,239,115,1
395,233,120,1
395,228,122,1
394,231,122,1
395,225,118,1
397,220,116,1
396,220,117,1
393,212,117,1
392,212,111,1
390,207,110,1
391,206,113,1
390,205,110,1
389,207,110,1
389,202,109,1
388,199,108,1
391,198,108,1
385,192,107,1
390,193,110,1
388,193,105,1
384,190,108,1
385,187,106,1
383,190,104,1
385,180,106,1
384,182,104,1
384,181,103,1
381,180,102,1
383,180,102,1
382,177,102,1
383,171,105,1
380,168,96,1
377,171,100,1
385,172,102,1
378,172,101,1
378,169,98,1
378,169,100,1
378,165,97,1
376,166,96,1
375,165,99,1
378,164,98,1
374,161,96,1
371,160,94,1
372,161,102,1
372,157,94,1
371,160,94,1
371,161,95,1
369,161,96,1
372,157,93,1
369,159,92,1
368,153,97,1
372,156,93,1
369,156,92,1
374,154,93,1
369,154,96,1
373,154,94,1
373,153,95,1
373,151,93,1
376,151,93,1
374,155,92,1
374,154,92,1
374,151,93,1
377,154,92,1
377,154,91,1
378,149,94,1
378,153,91,1
376,152,93,1
380,149,93,1
379,151,93,1
378,148,92,1
381,152,93,1
381,150,92,1
385,152,94,1
384,149,90,1
383,152,94,1
385,147,90,1
386,149,94,1
386,147,89,1
387,149,89,1
387,156,91,1
390,156,92,1
390,156,94,1
391,155,90,1
389,156,90,1
393,153,92,1
391,153,90,1
393,153,92,1
393,150,92,1
395,151,88,1
395,149,90,1
396,151,91,1
396,153,91,1
396,152,89,1
400,149,91,1
398,154,92,1
398,156,90,1
398,153,92,1
398,154,89,1
398,156,89,1
404,166,90,1
405,164,92,1
401,162,90,1
404,169,91,1
400,171,88,1
402,171,94,1
404,170,92,1
405,168,93,1
405,168,93,1
408,168,89,1
410,168,92,1
406,164,92,1
409,164,89,1
409,164,89,1
409,165,89,1
411,160,92,1
413,162,91,1
409,161,87,1
409,158,93,1
411,158,90,1
414,158,92,1
413,157,93,1
417,159,88,1
414,156,90,1
412,153,92,1
413,157,92,1
416,154,91,1
414,153,92,1
416,155,92,1
415,155,91,1
419,156,94,1
417,152,94,1
418,154,92,1
418,151,91,1
419,150,92,1
420,152,92,1
417,150,91,1
419,149,92,1
416,148,91,1
421,150,94,1
422,150,92,1
420,152,93,1
420,147,92,1
421,156,95,1
420,154,93,1
420,150,91,1
419,152,88,1
422,150,96,1
421,153,95,1
418,148,91,1
418,154,94,1
419,150,93,1
421,150,90,1
422,150,93,1
424,151,94,1
423,149,92,1
421,147,93,1
422,146,93,1
423,148,92,1
424,145,92,1
425,149,90,1
425,148,92,1
421,146,93,1
422,149,93,1
424,146,93,1
420,148,92,1
428,146,92,1
425,145,92,1
426,147,94,1
423,141,89,1
427,145,91,1
424,144,94,1
427,145,91,1
428,152,92,1
425,144,92,1
425,148,92,1
425,145,94,1
425,146,91,1
426,144,88,1
423,144,94,1
426,145,91,1
426,147,92,1
426,144,94,1
423,146,92,1
424,146,89,1
425,148,90,1
425,149,87,1
426,146,92,1
426,148,92,1
425,147,92,1
425,138,89,1
424,144,92,1
424,146,90,1
428,147,91,1
427,144,90,1
426,143,94,1
428,147,92,1
424,144,91,1
424,144,92,1
426,147,91,1
425,147,90,1
426,144,90,1
423,144,90,1
427,144,93,1
424,146,91,1
425,146,90,1
428,144,92,1
429,145,90,1
424,145,93,1
426,144,91,1
423,144,90,1
425,144,96,1
426,143,89,1
424,142,90,1
426,144,91,1
426,146,88,1
424,142,90,1
424,142,92,1
422,143,91,1
424,146,91,1
425,143,90,1
423,142,92,1
423,144,92,1
424,144,92,1
422,141,90,1
422,144,92,1
422,144,90,1
422,144,90,1
422,144,93,1
424,142,89,1
426,142,89,1
413,141,88,1
423,140,90,1
423,141,94,1
419,140,88,0
419,140,88,0
426,142,92,0
423,142,90,0
425,139,92,0
422,145,92,0
424,143,93,0
423,143,90,0
423,143,89,0
421,142,90,0
420,141,89,0
423,145,90,0
420,143,92,0
422,149,92,0
419,141,91,0
419,142,88,0
422,145,92,0
418,142,92,0
420,144,92,0
417,144,91,0
422,144,92,0
417,142,90,0
420,142,89,0
418,142,89,0
419,144,90,0
419,146,88,0
422,144,91,0
418,143,90,0
417,143,90,0
421,140,93,0
416,143,87,0
419,142,88,0
418,140,89,0
419,144,89,0
416,141,87,0
416,139,88,0
417,141,90,0
416,142,89,0
418,140,96,0
418,144,90,0
418,144,89,0
417,142,90,0
416,144,92,0
413,142,87,0
416,141,87,0
417,142,90,0
415,147,88,0
416,145,87,0
419,142,89,0
416,142,85,0
412,142,88,0
414,144,91,0
418,142,89,0
416,142,87,0
411,140,85,0
412,141,90,0
413,144,88,0
416,144,86,0
413,144,92,0
412,146,87,0
412,144,88,0
413,144,89,0
411,145,89,0
411,142,83,0
410,144,88,0
411,144,86,0
412,141,89,0
410,143,86,0
406,143,87,0
405,144,90,0
406,142,86,0
408,142,88,0
402,143,87,0
404,140,89,0
403,144,85,0
403,142,87,0
402,139,88,0
401,142,84,0
404,142,92,0
403,145,85,0
404,144,85,0
402,142,89,0
401,138,88,0
400,145,87,0
400,147,88,0
402,149,86,0
399,145,87,0
397,145,88,0
396,144,87,0
397,144,89,0
395,144,85,0
394,144,87,0
397,145,89,0
394,148,87,0
393,145,86,0
395,145,88,0
390,145,87,0
392,146,89,0
393,144,88,0
392,144,88,0
391,143,88,0
392,146,86,0
387,144,90,0
384,145,86,0
387,146,89,0
387,145,90,0
385,144,88,0
386,142,91,0
389,144,87,0
384,142,90,0
388,145,91,0
384,144,86,0
383,144,88,0
381,145,90,0
385,146,90,0
377,145,87,0
382,144,89,0
380,144,88,0
384,143,87,0
379,145,88,0
379,141,90,0
374,143,86,0
378,144,88,0
376,141,86,0
375,138,89,0
376,143,87,0
373,144,88,0
375,145,89,0
374,144,87,0
376,144,90,0
372,143,87,0
373,142,89,0
373,140,91,0
376,144,89,0
375,148,89,0
373,147,88,0
372,142,88,0
372,146,93,0
377,148,89,0
373,145,87,0
377,146,93,0
374,144,87,0
375,145,89,0
373,147,92,0
376,147,88,0
376,145,91,0
378,144,92,0
378,146,90,0
380,146,88,0
377,144,85,0
378,142,86,0
380,145,92,0
382,144,90,0
381,144,87,0
381,142,88,0
384,147,88,0
381,143,88,0
382,141,88,0
386,144,88,0
384,144,88,0
388,148,93,0
383,142,87,0
389,144,90,0
384,144,89,0
388,148,84,0
388,146,86,0
388,144,89,0
390,144,89,0
390,145,90,0
394,142,86,0
394,144,89,0
390,141,87,0
393,144,87,0
393,143,86,0
392,138,91,0
395,142,88,0
396,140,89,0
395,142,88,0
398,143,88,0
398,142,92,0
398,142,88,0
399,142,88,0
396,142,94,0
397,144,86,0
398,145,90,0
400,143,88,0
400,145,88,0
398,147,90,0
399,144,88,0
397,141,88,0
400,148,88,0
405,144,90,0
404,146,89,0
403,141,89,0
402,144,89,0
399,143,86,0
403,144,88,0
404,143,88,0
405,142,89,0
403,144,87,0
403,141,89,0
404,142,89,0
404,144,86,0
408,148,92,0
408,146,89,0
410,144,88,0
408,145,89,0
404,144,85,0
408,143,88,0
405,144,88,0
407,145,88,0
408,144,89,0
407,142,88,0
408,142,88,0
404,141,91,0
407,144,88,0
405,142,91,0
410,140,87,0
408,140,86,0
409,144,89,0
405,142,87,0
409,140,85,0
410,142,93,0
412,140,89,0
411,144,89,0
413,144,90,0
413,143,92,0
410,142,88,0
412,143,88,0
411,141,87,0
413,146,91,0
411,143,88,0
416,146,88,0
411,143,89,0
414,143,88,0
413,143,90,0
409,140,85,0
415,144,89,0
414,144,90,0
412,144,89,0
412,140,87,0
411,145,92,0
411,141,88,0
412,142,93,0
414,141,90,0
418,144,92,0
413,143,91,0
410,142,90,0
413,144,90,0
409,142,89,0
411,140,88,0
416,140,89,0
413,146,92,0
412,142,88,0
413,141,86,0
408,143,85,0
412,141,89,0
412,143,89,0
412,143,88,0
414,144,90,0
409,144,89,0
413,143,90,0
411,144,89,0
409,142,87,0
413,143,90,0
412,143,90,0
409,144,89,0
409,143,94,0
410,142,90,0
410,144,92,0
409,144,89,0
407,143,88,0
410,142,89,0
408,143,89,0
409,142,89,0
409,145,92,0
408,143,91,0
408,144,90,0
407,141,92,0
407,142,89,0
406,143,91,0
408,142,88,0
404,142,91,0
405,145,89,0
404,145,89,0
406,146,89,0
407,144,90,0
404,144,88,0
405,142,89,0
406,143,88,0
404,145,92,0
403,144,91,0
404,145,90,0
402,143,89,0
405,145,89,0
403,143,89,0
400,144,93,0
404,145,93,0
400,141,89,0
403,143,92,0
402,144,87,0
403,146,89,0
400,142,86,0
401,141,92,0
402,148,90,0
400,147,89,0
401,147,90,0
397,143,89,0
399,143,91,0
400,143,90,0
396,141,90,0
402,145,91,0
400,142,89,0
396,141,87,0
399,145,90,0
398,142,91,0
395,143,89,0
399,142,92,0
398,146,90,0
397,142,88,0
396,144,92,0
396,143,90,0
395,141,90,0
395,146,89,0
398,144,91,0
398,142,88,0
394,144,87,0
396,141,88,0
394,144,89,0
392,144,88,0
397,146,93,0
388,135,90,0
395,146,86,0
391,145,90,0
392,146,90,0
392,142,89,0
394,143,88,0
391,143,89,0
393,144,91,0
394,144,90,0
391,145,92,0
390,142,88,0
391,143,91,0
393,142,88,0
391,144,88,0
390,144,86,0
389,143,91,0
393,146,89,0
390,146,90,0
390,147,88,0
392,149,89,0
389,146,89,0
390,146,85,0
387,142,89,0
388,144,90,0
387,144,85,0
389,147,91,0
389,147,88,0
390,146,91,0
391,143,90,0
390,143,87,0
387,144,87,0
386,144,88,0
390,140,89,0
387,144,88,0
388,144,85,0
386,142,89,0
388,143,88,0
388,144,89,0
388,142,89,0
390,142,91,0
391,149,86,0
388,144,90,0
388,142,88,0
386,142,86,0
384,147,86,0
389,149,86,0
387,148,89,0
386,145,86,0
387,146,88,0
385,148,84,0
387,145,89,0
384,144,85,0
386,145,87,0
386,147,89,0
384,146,89,0
382,146,88,0
386,145,89,0
382,146,87,0
382,147,86,0
385,146,86,0
383,149,88,0
384,142,88,0
381,146,86,0
380,147,87,0
381,144,90,0
382,146,86,0
380,144,88,0
380,145,88,0
377,144,86,0
379,146,86,0
377,142,84,0
375,144,87,0
378,146,89,0
378,144,90,0
376,146,88,0
378,144,88,0
376,144,89,0
372,143,87,0
375,144,86,0
372,143,89,0
371,141,88,0
368,142,84,0
370,144,82,0
372,140,90,0
370,140,87,0
368,140,88,0
372,141,89,0
370,142,86,0
368,144,84,0
370,142,85,0
369,143,86,0
370,141,87,0
372,147,88,0
373,143,86,0
373,142,83,0
371,140,86,0
372,142,85,0
373,142,87,0
372,147,87,0
376,146,87,0
375,148,87,0
376,145,86,0
368,144,85,0
376,147,87,0
376,144,86,0
377,145,88,0
379,145,87,0
381,148,86,0
381,144,87,0
381,147,86,0
381,143,86,0
382,144,88,0
384,147,88,0
385,146,87,0
388,145,85,0
385,141,82,0
388,144,89,0
388,146,88,0
388,147,87,0
393,146,88,0
394,145,80,0
395,143,86,0
392,145,86,0
396,143,88,0
394,145,86,0
393,144,90,0
396,144,88,0
395,146,88,0
396,145,85,0
397,145,88,0
401,144,88,0
399,145,86,0
402,146,89,0
403,146,88,0
402,146,88,0
402,142,84,0
405,145,86,0
405,148,89,0
407,148,89,0
409,148,92,0
408,149,91,0
411,147,89,0
408,145,86,0
410,145,88,0
408,144,88,0
409,148,86,0
413,151,90,0
412,150,92,0
414,152,90,0
413,150,88,0
413,152,88,0
418,157,89,0
417,157,90,0
416,155,89,0
420,153,90,0
418,154,88,0
418,156,88,0
422,157,88,0
421,157,91,0
424,158,90,0
421,158,89,0
422,156,90,0
425,156,90,0
422,154,86,0
423,157,85,0
431,158,92,0
428,158,88,0
425,155,87,0
429,155,89,0
427,155,94,0
427,156,83,0
427,156,91,0
431,152,87,0
429,157,88,0
433,154,86,0
428,156,88,0
431,155,87,0
430,157,89,0
430,158,87,0
434,156,86,0
434,156,90,0
432,155,90,0
435,155,89,0
433,154,88,0
432,152,90,0
435,155,86,0
434,153,87,0
437,153,91,0
435,151,89,0
434,152,88,0
432,155,87,0
438,156,90,0
436,152,87,0
435,156,87,0
437,151,89,0
436,150,88,0
433,150,85,0
435,150,89,0
437,153,86,0
437,153,85,0
438,152,88,0
438,148,89,0
436,148,86,0
443,151,88,0
434,153,87,0
434,150,89,0
435,149,87,0
437,147,84,0
435,150,88,0
436,151,86,0
436,147,90,0
436,148,86,0
435,149,85,0
437,147,89,0
437,146,86,0
436,146,87,0
435,142,90,0
436,146,88,0
437,142,88,0
436,145,91,0
439,144,87,0
435,145,88,0
433,144,90,0
433,146,85,0
437,144,87,0
438,145,89,0
436,146,92,0
434,146,90,0
435,141,85,0
434,143,88,0
434,145,90,0
434,148,91,0
435,146,88,0
433,142,90,0
432,144,86,0
432,146,87,0
435,145,86,0
433,140,86,0
433,141,91,0
432,142,87,0
433,143,90,0
432,145,88,0
434,144,86,0
429,142,86,0
431,142,88,0
433,144,89,0
432,141,90,0
432,142,88,0
428,142,87,0
428,142,88,0
428,144,88,0
430,146,89,0
432,146,87,0
429,149,87,0
430,145,89,0
429,146,87,0
428,146,86,0
426,145,84,0
427,145,87,0
429,146,86,0
422,147,89,0
424,147,87,0
429,146,90,0
424,145,89,0
421,147,88,0
424,144,86,0
426,148,86,0
421,146,87,0
420,145,89,0
424,146,86,0
419,144,85,0
419,146,90,0
418,148,88,0
420,144,89,0
418,145,87,0
418,142,85,0
416,142,84,0
418,147,90,0
420,144,87,0
418,144,86,0
418,146,87,0
418,144,85,0
415,143,87,0
415,139,89,0
412,144,86,0
413,144,88,0
413,143,88,0
416,144,85,0
415,140,88,0
411,141,86,0
409,142,86,0
411,142,88,0
415,146,88,0
413,144,88,0
412,144,91,0
409,144,86,0
407,143,88,0
410,145,88,0
406,143,86,0
405,142,84,0
408,144,90,0
409,142,87,0
404,144,84,0
405,139,90,0
405,140,87,0
407,142,86,0
402,144,86,0
406,141,88,0
403,145,88,0
404,141,87,0
402,140,88,0
402,144,87,0
404,140,87,0
403,144,88,0
400,148,88,0
398,145,92,0
398,148,82,0
398,146,89,0
397,147,88,0
399,144,88,0
401,144,86,0
397,143,84,0
398,146,90,0
394,143,87,0
399,142,85,0
397,144,89,0
395,142,86,0
395,142,86,0
397,143,85,0
398,144,88,0
392,142,87,0
393,142,88,0
394,143,89,0
393,145,86,0
390,142,87,0
393,144,87,0
390,144,87,0
392,144,91,0
390,143,86,0
391,142,89,0
389,142,87,0
390,142,86,0
389,143,85,0
386,140,86,0
388,144,87,0
390,141,90,0
388,140,87,0
390,142,88,0
389,141,88,0
386,141,85,0
387,140,88,0
389,140,87,0
390,144,87,0
386,142,87,0
384,140,89,0
385,142,88,0
382,140,85,0
385,138,89,0
385,140,87,0
384,142,88,0
381,139,85,0
384,144,87,0
385,141,87,0
381,142,86,0
383,145,88,0
378,142,88,0
384,140,88,0
383,145,90,0
384,137,87,0
382,142,87,0
383,140,89,0
384,145,88,0
384,144,87,0
381,142,84,0
381,139,92,0
380,141,88,0
379,138,88,0
386,143,90,0
381,144,89,0
380,144,88,0
383,144,89,0
379,141,88,0
377,140,88,0
378,138,89,0
379,141,89,0
380,144,89,0
378,142,87,0
378,141,87,0
376,142,86,0
374,142,89,0
377,144,86,0
376,142,88,0
374,144,87,0
375,142,87,0
376,142,88,0
374,140,90,0
374,142,86,0
376,146,88,0
374,144,88,0
374,141,88,0
374,146,88,0
369,144,86,0
373,143,87,0
371,144,85,0
375,144,88,0
372,143,88,0
372,144,91,0
372,146,89,0
370,145,88,0
371,144,86,0
375,145,89,0
372,147,90,0
373,145,90,0
375,144,90,0
378,144,90,0
378,144,88,0
374,144,88,0
376,140,86,0
377,144,89,0
379,145,91,0
378,143,86,0
379,144,85,0
378,144,87,0
379,144,88,0
380,144,90,0
380,141,91,0
380,143,86,0
384,141,86,0
383,142,88,0
382,142,85,0
384,142,88,0
390,145,89,0
390,142,87,0
384,144,91,0
389,141,85,0
386,142,84,0
388,141,84,0
391,142,89,0
390,144,89,0
390,145,87,0
391,142,87,0
390,142,86,0
392,140,86,0
390,142,88,0
397,142,86,0
397,143,88,0
396,139,87,0
395,138,85,0
398,142,90,0
398,142,89,0
398,142,87,0
399,140,90,0
401,138,91,0
401,142,86,0
399,142,90,0
402,141,88,0
401,142,86,0
401,144,85,0
404,139,85,0
405,144,88,0
402,140,87,0
406,144,86,0
404,147,88,0
407,143,86,0
406,139,88,0
409,138,90,0
408,144,90,0
408,144,90,0
408,141,85,0
411,138,88,0
412,138,88,0
411,138,87,0
410,144,89,0
411,141,86,0
413,141,88,0
412,142,86,0
413,144,88,0
417,142,88,0
414,145,88,0
416,140,91,0
414,139,85,0
415,142,90,0
412,141,87,0
416,142,91,0
420,141,88,0
417,141,91,0
416,144,90,0
418,142,90,0
417,142,88,0
417,144,89,0
417,146,88,0
422,147,88,0
418,145,89,0
418,148,88,0
419,146,90,0
419,144,86,0
423,148,87,0
423,147,89,0
422,149,88,0
420,147,88,0
422,150,92,0
422,150,89,0
420,147,89,0
426,151,89,0
421,149,90,0
424,148,88,0
419,149,92,0
423,148,88,0
424,147,87,0
423,147,90,0
425,148,91,0
426,152,92,0
424,146,92,0
424,148,90,0
421,146,91,0
424,146,89,0
422,151,90,0
424,147,90,0
424,149,90,0
424,145,90,0
420,148,92,0
425,143,89,0
424,147,90,0
427,148,89,0
426,147,92,0
426,147,87,0
426,148,88,0
425,149,89,0
427,144,89,0
422,144,90,0
424,146,88,0
428,147,91,0
429,146,89,0
427,143,89,0
423,146,88,0
424,142,86,0
424,145,89,0
424,146,90,0
427,144,88,0
427,146,86,0
429,146,90,0
426,141,90,0
421,141,85,0
426,146,88,0
428,143,89,0
425,150,90,0
426,146,90,0
423,146,90,0
427,143,91,0
424,143,91,0
428,144,89,0
427,146,92,0
432,143,92,0
426,144,91,0
430,143,89,0
430,141,88,0
425,144,91,0
429,145,92,0
427,142,93,0
427,140,95,0
427,143,91,0
427,144,94,0
425,143,93,0
426,146,92,0
427,140,93,0
426,144,95,0
424,145,95,0
426,143,94,0
424,142,94,0
430,142,96,0
424,142,97,0
426,145,95,0
430,141,94,0
425,147,95,0
426,145,97,0
427,139,96,0
428,147,96,0
428,145,96,0
428,142,96,0
427,141,96,0
428,145,96,0
427,143,96,0
426,140,94,0
424,143,94,0
427,141,94,0
427,142,96,0
428,143,101,0
426,144,96,0
424,143,91,0
426,144,94,0
426,144,97,0
428,144,98,0
429,146,96,0
426,139,98,0
426,142,99,0
427,147,96,0
425,142,96,0
426,141,96,0
425,142,99,0
424,142,97,0
426,144,95,0
427,143,97,0
427,142,96,0
429,142,96,0
426,142,93,0
429,145,97,0
424,144,93,0
427,142,96,0
423,142,97,0
427,139,95,0
426,142,97,0
425,145,90,0
428,145,94,0
426,145,92,0
427,143,92,0
421,139,88,0
425,141,96,0
426,140,94,0
425,144,92,0
423,143,91,0
425,144,92,0
423,141,92,0
425,142,93,0
430,144,96,0
425,144,91,0
424,146,94,0
427,145,91,0
425,147,93,0
424,145,91,0
420,144,92,0
424,145,95,0
423,144,92,0
425,146,93,0
424,145,90,0
424,148,94,0
424,145,92,0
420,144,91,0
424,146,92,0
422,145,96,0
421,143,89,0
420,144,90,0
417,145,93,0
420,144,89,0
424,146,97,0
420,141,94,0
422,144,94,0
421,145,92,0
423,148,93,0
421,142,94,0
422,144,92,0
417,145,91,0
424,147,94,0
421,144,92,0
423,144,94,0
424,145,93,0
418,145,92,0
420,144,91,0
417,144,93,0
424,145,89,0
420,146,91,0
420,146,93,0
419,142,90,0
417,146,93,0
420,146,91,0
420,144,90,0
420,140,96,0
418,146,91,0
418,142,90,0
417,140,94,0
415,144,90,0
418,142,92,0
421,144,92,0
417,146,92,0
418,143,88,0
416,144,90,0
416,142,90,0
417,143,88,0
419,145,91,0
417,146,90,0
414,144,93,0
414,144,92,0
416,144,92,0
415,144,88,0
416,141,90,0
413,144,92,0
415,144,89,0
414,145,89,0
415,142,88,0
411,142,88,0
411,144,90,0
414,145,91,0
413,143,93,0
412,147,89,0
416,149,89,0
411,144,88,0
411,146,88,0
414,146,89,0
412,144,86,0
413,146,89,0
413,146,84,0
409,144,85,0
407,140,87,0
411,145,84,0
410,144,90,0
411,146,88,0
408,146,89,0
406,144,87,0
408,146,89,0
406,142,86,0
405,144,89,0
403,139,89,0
402,145,87,0
404,144,87,0
403,146,88,0
402,142,90,0
402,146,88,0
404,143,88,0
400,146,91,0
400,147,89,0
399,145,84,0
401,148,90,0
399,146,91,0
393,150,87,0
398,146,90,0
395,148,91,0
394,148,89,0
397,146,93,0
392,146,88,0
391,144,88,0
392,144,90,0
384,143,91,0
390,146,87,0
389,145,89,0
388,146,90,0
392,141,86,0
389,145,88,0
385,145,90,0
387,139,86,0
386,147,92,0
385,139,89,0
383,140,87,0
381,142,88,0
384,145,91,0
382,144,86,0
380,140,89,0
378,139,91,0
378,141,85,0
375,143,88,0
375,140,90,0
378,145,90,0
377,144,90,0
377,138,91,0
373,145,88,0
373,143,89,0
373,144,87,0
375,143,90,0
375,145,88,0
378,145,90,0
377,144,88,0
375,146,89,0
378,144,89,0
373,138,83,0
377,144,88,0
376,145,87,0
378,144,87,0
379,144,85,0
380,141,92,0
376,142,86,0
381,145,86,0
385,144,88,0
383,141,85,0
382,144,87,0
385,142,82,0
384,144,85,0
382,139,86,0
386,142,90,0
388,144,89,0
388,140,86,0
389,136,86,0
388,140,87,0
387,146,84,0
388,142,86,0
392,144,89,0
393,145,87,0
395,144,89,0
393,140,88,0
393,143,90,0
395,140,85,0
395,140,89,0
398,142,88,0
397,144,86,0
402,141,89,0
398,141,88,0
400,140,88,0
401,140,89,0
402,138,88,0
405,140,89,0
405,142,90,0
403,142,86,0
406,141,88,0
409,144,90,0
405,141,86,0
407,141,89,0
412,145,86,0
414,141,88,0
410,140,85,0
412,141,88,0
411,136,88,0
414,142,90,0
413,144,86,0
414,142,86,0
416,143,86,0
416,141,88,0
415,139,87,0
413,142,86,0
416,140,89,0
417,145,85,0
419,139,88,0
419,142,88,0
420,141,88,0
420,142,86,0
419,142,89,0
420,142,88,0
420,142,91,0
423,142,89,0
421,144,89,0
423,140,87,0
420,141,89,0
422,144,88,0
427,138,91,0
427,144,90,0
423,145,90,0
423,145,87,0
422,144,87,0
423,145,85,0
427,145,87,0
427,146,91,0
426,148,89,0
428,147,88,0
425,145,88,0
426,145,86,0
425,146,86,0
427,146,89,0
429,148,89,0
432,149,86,0
427,145,86,0
428,148,88,0
425,142,88,0
428,143,90,0
427,146,87,0
428,145,89,0
429,145,87,0
429,148,86,0
429,144,86,0
427,146,88,0
428,146,85,0
424,144,89,0
430,143,84,0
428,149,87,0
431,148,84,0
428,145,88,0
427,148,88,0
428,148,86,0
429,147,84,0
431,144,85,0
428,146,83,0
429,144,87,0
430,145,86,0
428,147,88,0
429,144,89,0
430,148,89,0
425,148,91,0
428,144,90,0
428,148,88,0
427,144,88,0
427,143,88,0
425,145,88,0
427,145,85,0
427,144,88,0
429,145,89,0
425,144,90,0
427,147,87,0
426,146,88,0
425,147,88,0
427,145,87,0
425,144,87,0
430,144,89,0
425,144,90,0
424,144,91,0
427,147,87,0
428,145,89,0
422,145,88,0
427,148,88,0
423,144,86,0
424,144,92,0
427,145,90,0
427,145,90,0
427,140,89,0
425,144,87,0
427,144,88,0
421,142,85,0
424,142,86,0
426,141,89,0
424,144,88,0
427,144,84,0
425,141,86,0
423,144,88,0
423,141,88,0
424,138,92,0
425,142,88,0
424,141,89,0
421,144,89,0
423,140,88,0
423,140,88,0
426,142,86,0
423,138,91,0
427,146,86,0
429,140,87,0
421,140,84,0
423,138,87,0
423,139,86,0
423,141,86,0
420,143,88,0
419,141,87,0
422,142,87,0
420,142,89,0
420,146,86,0
421,142,88,0
424,144,87,0
420,141,88,0
421,143,88,0
420,142,87,0
421,141,89,0
417,143,85,0
422,146,88,0
419,143,85,0
420,144,91,0
421,145,92,0
419,140,87,0
421,144,90,0
419,142,91,0
420,144,87,0
417,142,87,0
418,143,86,0
420,144,90,0
420,144,87,0
416,142,89,0
416,139,86,0
419,142,89,0
418,144,88,0
416,142,88,0
417,140,91,0
417,141,88,0
414,141,87,0
416,138,89,0
412,141,88,0
416,146,88,0
414,142,85,0
416,139,88,0
413,145,87,0
412,142,88,0
411,139,90,0
414,141,88,0
411,145,89,0
413,142,85,0
412,142,89,0
411,141,87,0
411,143,87,0
412,142,91,0
412,141,88,0
409,144,88,0
407,141,88,0
409,139,88,0
408,140,86,0
410,145,89,0
411,142,86,0
409,142,88,0
408,141,88,0
410,143,88,0
408,142,91,0
406,144,89,0
408,141,89,0
411,144,91,0
412,144,89,0
408,142,87,0
408,146,88,0
406,146,86,0
408,139,89,0
407,142,87,0
409,144,89,0
412,141,88,0
404,142,88,0
409,144,89,0
408,142,89,0
406,143,89,0
406,146,91,0
407,143,88,0
405,144,87,0
406,143,89,0
407,143,84,0
406,142,85,0
408,144,87,0
406,145,86,0
407,140,89,0
408,142,86,0
405,145,92,0
405,143,91,0
404,144,91,0
406,144,93,0
404,144,90,0
405,142,92,0
400,143,89,0
403,145,89,0
402,139,91,0
400,146,91,0
404,141,88,0
404,143,92,0
401,143,88,0
403,143,91,0
402,142,90,0
400,144,88,0
402,146,91,0
400,144,90,0
404,145,92,0
400,142,87,0
401,142,89,0
397,141,87,0
398,144,85,0
402,142,89,0
400,142,89,0
400,142,90,0
400,144,90,0
401,143,89,0
396,145,88,0
398,142,88,0
401,143,90,0
397,142,91,0
396,144,90,0
399,143,88,0
395,139,89,0
395,141,90,0
395,146,90,0
399,148,91,0
399,150,93,0
399,148,95,0
398,149,93,0
395,147,94,0
395,149,91,0
397,147,92,0
396,146,89,0
392,147,91,0
400,148,91,0
391,146,90,0
393,150,91,0
389,150,94,0
390,151,89,0
389,148,91,0
390,145,92,0
387,147,91,0
388,146,90,0
392,145,90,0
392,150,97,0
389,145,91,0
389,147,92,0
388,144,92,0
389,144,93,0
385,144,92,0
386,145,91,0
386,145,91,0
386,145,90,0
382,141,92,0
384,149,90,0
381,142,91,0
379,147,89,0
384,149,90,0
382,141,91,0
384,146,91,0
379,148,90,0
378,147,88,0
377,145,89,0
380,148,90,0
379,150,90,0
376,145,90,0
376,143,86,0
373,145,89,0
376,148,87,0
375,147,90,0
376,145,89,0
375,147,91,0
375,149,92,0
377,145,92,0
371,148,89,0
373,146,92,0
376,148,93,0
372,145,90,0
372,148,86,0
375,145,90,0
374,144,90,0
373,145,90,0
374,145,88,0
373,146,89,0
375,144,88,0
374,148,87,0
377,147,89,0
376,150,90,0
376,151,93,0
378,147,86,0
376,148,88,0
379,148,90,0
381,147,89,0
381,146,88,0
381,145,91,0
380,147,89,0
383,148,91,0
379,146,93,0
382,150,89,0
381,150,87,0
382,149,89,0
384,152,89,0
384,152,86,0
385,157,88,0
384,153,91,0
386,154,88,0
386,151,89,0
388,155,89,0
388,154,89,0
388,159,89,0
391,158,90,0
390,156,90,0
393,156,89,0
391,153,86,0
394,154,87,0
388,154,88,0
392,155,88,0
392,156,89,0
396,157,88,0
394,156,90,0
396,155,88,0
397,156,91,0
397,160,86,0
396,158,87,0
400,159,86,0
398,156,87,0
400,157,89,0
398,156,89,0
398,159,86,0
399,162,88,0
399,158,93,0
403,163,88,0
402,161,88,0
400,158,89,0
402,158,87,0
404,160,84,0
402,158,88,0
406,160,88,0
403,159,87,0
402,156,92,0
405,157,87,0
407,157,89,0
404,159,86,0
406,161,86,0
406,157,89,0
408,157,91,0
406,157,90,0
408,157,88,0
407,155,87,0
408,153,88,0
409,155,89,0
412,155,87,0
411,153,85,0
407,152,87,0
412,154,88,0
409,153,89,0
410,155,86,0
412,152,90,0
411,152,91,0
411,151,88,0
411,152,89,0
414,152,86,0
411,151,89,0
415,154,90,0
413,150,91,0
417,151,85,0
412,148,90,0
413,150,90,0
416,150,88,0
414,152,88,0
415,148,87,0
417,147,90,0
417,151,90,0
418,148,88,0
415,149,90,0
413,146,90,0
417,154,89,0
417,150,92,0
418,153,92,0
416,148,90,0
419,148,90,0
420,148,94,0
417,149,83,0
419,149,88,0
418,150,94,0
420,150,92,0
419,150,89,0
419,156,92,0
421,149,90,0
419,149,90,0
421,150,92,0
419,151,94,0
419,150,92,0
421,150,91,0
419,150,92,0
416,152,92,0
422,154,93,0
418,152,92,0
422,154,93,0
420,152,97,0
423,150,93,0
417,150,96,0
421,152,93,0
421,149,93,0
423,157,94,0
421,152,93,0
424,154,94,0
420,152,97,0
421,154,94,0
422,155,93,0
424,152,93,0
420,153,92,0
423,154,93,0
422,157,90,0
420,153,97,0
421,156,93,0
421,156,94,0
422,158,93,0
421,158,95,0
418,157,96,0
420,156,93,0
419,155,90,0
420,154,90,0
420,157,92,0
420,155,93,0
418,158,93,0
419,152,95,0
422,155,94,0
420,157,94,0
424,154,94,0
421,152,92,0
420,152,91,0
418,156,91,0
421,154,92,0
419,155,91,0
421,154,93,0
423,152,96,0
423,149,98,0
418,149,96,0
418,153,96,0
420,150,97,0
421,155,93,0
420,157,94,0
422,154,98,0
420,154,94,0
419,154,97,0
418,154,96,0
420,152,99,0
417,152,94,0
420,157,93,0
416,154,95,0
420,153,96,0
416,155,96,0
418,161,96,0
418,162,100,0
419,160,100,0
423,159,97,0
417,156,100,0
417,160,97,0
420,157,96,0
417,157,100,0
414,154,99,0
416,153,96,0
417,155,94,0
419,156,94,0
416,155,94,0
418,153,96,0
418,155,96,0
418,155,96,0
418,152,96,0
416,151,93,0
415,150,92,0
415,153,94,0
417,150,97,0
414,152,96,0
415,151,94,0
414,152,97,0
416,155,98,0
416,156,104,0
417,161,102,0
416,163,110,0
415,168,109,0
411,177,110,0
415,177,111,0
412,176,108,0
416,172,107,0
410,174,112,0
414,178,108,0
409,170,109,0
411,177,106,0
412,175,109,0
414,183,110,0
417,203,109,0
412,201,110,0
411,224,113,0
410,232,114,0
412,225,114,0
415,227,114,0
415,232,110,0
412,230,113,0
410,226,108,0
412,239,110,0
406,241,110,0
412,242,111,0
410,254,110,0
410,257,110,0
409,268,108,0
409,282,116,0
409,277,116,0
410,280,114,0
411,274,111,0
408,264,114,0
409,308,111,1
408,320,118,1
406,324,114,1
410,315,117,1
406,311,114,1
409,304,116,1
408,291,124,1
405,299,138,1
407,296,144,1
406,288,138,1
406,284,137,1
407,318,144,1
408,340,147,1
405,353,143,1
404,369,144,1
407,368,137,1
407,386,148,1
402,409,166,1
403,424,176,1
404,496,172,1
402,558,170,1
403,545,176,1
400,542,186,1
402,574,193,1
406,567,201,1
403,597,210,1
401,581,205,1
402,609,208,1
402,611,205,1
405,621,213,1
402,602,216,1
404,586,206,1
402,590,208,1
406,573,205,1
406,576,201,1
398,564,196,1
404,555,194,1
402,553,192,1
404,564,193,1
402,552,186,1
401,553,192,1
402,540,191,1
400,528,200,1
401,525,198,1
399,544,209,1
397,533,209,1
396,526,224,1
401,537,218,1
397,550,223,1
395,546,222,1
397,584,218,1
396,576,213,1
393,598,207,1
395,593,211,1
395,625,202,1
392,644,198,1
393,666,195,1
392,678,198,1
392,663,201,1
391,652,193,1
391,638,194,1
390,673,196,1
390,666,200,1
392,655,193,1
392,644,194,1
389,673,184,1
386,730,194,1
386,767,194,1
386,752,192,1
382,725,192,1
384,732,190,1
379,726,185,1
383,701,183,1
384,684,193,1
383,682,193,1
381,702,190,1
384,685,192,1
380,686,185,1
381,668,192,1
380,666,187,1
381,694,190,1
379,716,186,1
378,779,185,1
379,803,181,1
379,806,177,1
379,802,176,1
375,823,173,1
373,829,175,1
376,808,172,1
377,783,186,1
374,774,188,1
377,800,184,1
374,787,179,1
372,783,173,1
373,792,177,1
369,841,177,1
370,903,197,1
367,952,198,1
368,958,200,1
366,929,196,1
371,943,192,1
370,908,190,1
368,921,197,1
368,898,212,1
366,872,206,1
366,845,212,1
367,831,210,1
369,837,212,1
371,860,224,1
370,874,249,1
370,903,253,1
375,897,255,1
373,943,245,1
369,979,242,1
371,1048,237,1
373,1053,250,1
371,1057,251,1
374,1040,248,1
372,1017,244,1
377,1052,239,1
371,1076,241,1
371,1060,245,1
372,1051,253,1
372,1094,249,1
380,1097,277,1
376,1096,277,1
378,1076,286,1
380,1188,291,1
379,1167,285,1
377,1246,290,1
382,1249,319,1
379,1212,336,1
382,1240,350,1
383,1273,339,1
382,1249,334,1
383,1284,352,1
382,1258,361,1
382,1284,383,1
382,1267,398,1
383,1212,417,1
386,1204,409,1
385,1173,407,1
388,1152,395,1
387,1128,398,1
386,1104,385,1
389,1069,400,1
390,1068,453,1
392,1156,563,1
392,1198,587,1
390,1257,593,1
393,1325,578,1
394,1276,570,1
392,1253,552,1
392,1268,556,1
392,1266,546,1
395,1249,610,1
396,1232,618,1
394,1200,601,1
395,1193,582,1
400,1180,598,1
398,1169,590,1
396,1132,584,1
399,1122,563,1
400,1136,565,1
395,1204,549,1
397,1176,536,1
399,1166,525,1
396,1153,502,1
400,1120,499,1
400,1124,490,1
405,1114,499,1
400,1140,485,1
401,1114,469,1
404,1110,453,1
401,1117,440,1
400,1140,499,1
402,1171,531,1
397,1145,519,1
404,1108,548,1
406,1077,546,1
401,1053,530,1
404,1086,512,1
404,1066,499,1
402,1055,522,1
405,1033,532,1
403,1051,511,1
403,1067,536,1
405,1124,533,1
401,1113,532,1
410,1108,540,1
403,1111,527,1
407,1118,531,1
404,1126,517,1
409,1105,514,1
408,1066,502,1
405,1049,552,1
406,1089,565,1
405,1112,544,1
407,1102,535,1
406,1082,516,1
406,1041,501,1
408,1009,484,1
408,1002,484,1
404,1024,473,1
409,1015,472,1
408,1036,462,1
407,1056,455,1
408,1038,444,1
400,1007,439,1
403,990,427,1
410,986,464,1
406,965,466,1
407,953,458,1
411,952,442,1
406,951,451,1
406,929,461,1
410,918,446,1
411,895,434,1
411,888,435,1
411,906,500,1
410,950,509,1
408,1015,560,1
411,1010,561,1
412,977,560,1
409,956,542,1
411,1032,536,1
411,1030,516,1
412,1017,497,1
411,991,509,1
413,1001,498,1
415,993,492,1
415,990,529,1
411,976,520,1
410,1027,561,1
412,1019,553,1
412,1039,532,1
411,1013,526,1
412,985,595,1
414,966,676,1
409,970,652,1
414,1007,634,1
409,982,619,1
410,980,620,1
408,950,613,1
411,927,616,1
410,899,611,1
409,874,592,1
409,930,632,1
411,919,644,1
408,890,734,1
409,924,727,1
412,954,702,1
407,929,677,1
408,914,650,1
411,896,631,1
408,886,619,1
409,859,616,1
409,835,606,1
411,825,590,1
409,830,565,1
409,802,582,1
411,771,595,1
408,766,613,1
411,748,616,1
406,765,613,1
410,788,600,1
406,796,572,1
410,804,568,1
406,787,604,1
405,770,592,1
411,770,604,1
412,759,636,1
407,747,649,1
406,774,637,1
408,823,619,1
407,862,600,1
409,866,584,1
410,849,628,1
408,826,680,1
406,852,669,1
408,838,647,1
406,838,639,1
410,813,651,1
410,821,648,1
406,807,636,1
404,800,614,1
409,814,608,1
404,797,587,1
406,772,562,1
405,757,546,1
405,758,529,1
408,777,572,1
407,810,701,1
402,813,682,1
404,847,668,1
404,910,683,1
406,914,666,1
407,904,641,1
404,915,620,1
405,912,606,1
403,901,586,1
404,904,610,1
404,878,605,1
402,911,594,1
403,949,617,1
405,952,607,1
403,972,579,1
406,968,584,1
404,967,643,1
399,943,675,1
405,913,695,1
404,936,688,1
406,941,678,1
404,951,661,1
401,1025,642,1
402,1051,623,1
401,1031,607,1
402,1041,599,1
401,1073,574,1
402,1108,568,1
398,1087,554,1
398,1060,542,1
400,1022,516,1
401,989,514,1
398,958,507,1
400,963,494,1
401,957,491,1
402,939,511,1
406,955,503,1
402,926,529,1
399,895,511,1
402,869,580,1
397,879,560,1
399,915,548,1
399,931,525,1
396,904,557,1
398,875,601,1
404,876,599,1
400,893,600,1
400,898,580,1
400,874,629,1
399,871,646,1
400,857,633,1
397,895,612,1
396,936,588,1
400,943,592,1
401,938,592,1
397,903,609,1
396,885,621,1
398,867,624,1
398,871,642,1
400,849,641,1
394,829,693,1
393,807,716,1
396,789,697,1
393,786,667,1
398,831,647,1
397,821,625,1
396,812,606,1
397,806,648,1
396,836,661,1
396,810,641,1
393,840,618,1
396,879,620,1
394,872,621,1
393,839,608,1
394,809,614,1
395,803,612,1
394,808,590,1
393,812,574,1
391,787,555,1
394,770,623,1
392,776,623,1
394,852,605,1
393,855,664,1
392,839,642,1
392,891,629,1
392,911,632,1
390,912,609,1
391,878,587,1
393,851,566,1
391,854,566,1
395,842,616,1
393,819,606,1
394,827,595,1
392,839,590,1
391,811,570,1
389,817,569,1
386,840,550,1
390,884,533,1
389,885,513,1
386,859,575,1
392,856,613,1
388,851,612,1
384,834,612,1
384,851,605,1
385,852,595,1
388,839,589,1
384,810,580,1
384,826,557,1
385,881,576,1
381,871,557,1
384,845,546,1
382,821,548,1
379,844,533,1
382,833,524,1
380,857,519,1
378,825,507,1
379,803,488,1
378,821,486,1
375,816,473,1
379,808,475,1
379,809,493,1
376,831,490,1
376,813,490,1
375,788,514,1
376,783,566,1
376,770,555,1
376,768,538,1
373,756,522,1
375,773,520,1
374,774,541,1
376,767,526,1
374,746,510,1
374,745,490,1
371,724,475,1
374,721,469,1
376,708,484,1
374,704,481,1
372,707,486,1
376,733,487,1
381,726,488,1
377,737,477,1
376,767,484,1
379,775,500,1
379,779,493,1
378,826,521,1
380,830,513,1
378,811,515,1
382,791,508,1
380,760,506,1
381,741,559,1
381,722,545,1
382,735,523,1
384,733,511,1
384,771,494,1
386,800,477,1
386,834,481,1
385,828,470,1
387,804,465,1
391,793,477,1
390,781,563,1
391,771,571,1
392,752,561,1
391,796,549,1
392,783,535,1
395,761,519,1
393,767,514,1
396,746,522,1
396,727,569,1
396,721,573,1
397,738,547,1
396,742,539,1
400,738,520,1
399,737,509,1
400,729,492,1
400,704,488,1
399,685,470,1
400,671,480,1
406,653,510,1
400,648,499,1
403,642,507,1
402,662,503,1
404,682,506,1
405,666,523,1
407,656,541,1
406,680,531,1
407,723,517,1
409,703,507,1
408,685,491,1
411,671,474,1
411,657,460,1
410,702,462,1
411,694,461,1
416,686,449,1
412,668,438,1
413,670,458,1
417,652,459,1
413,635,442,1
415,658,463,1
411,652,453,1
413,631,441,1
416,644,424,1
412,636,451,1
415,644,442,1
416,654,438,1
418,686,426,1
415,703,410,1
416,689,437,1
417,697,475,1
419,680,488,1
416,665,479,1
423,660,477,1
419,661,512,1
417,657,499,1
420,642,482,1
421,623,497,1
422,630,484,1
421,621,487,1
423,628,468,1
423,640,460,1
424,667,442,1
420,660,470,1
423,641,468,1
423,617,464,1
425,604,510,1
426,597,538,1
422,601,551,1
425,639,535,1
423,643,553,1
423,625,539,1
424,616,555,1
424,648,576,1
423,638,565,1
422,631,560,1
422,677,545,1
422,668,532,1
428,654,589,1
427,689,633,1
423,719,638,1
424,729,654,1
427,727,633,1
425,788,608,1
428,783,592,1
423,831,573,1
423,844,560,1
428,843,547,1
426,866,533,1
425,839,514,1
428,826,499,1
426,853,527,1
423,850,538,1
429,833,538,1
426,862,623,1
423,854,615,1
427,886,605,1
427,866,610,1
428,851,593,1
423,830,567,1
425,816,572,1
432,821,588,1
427,811,577,1
426,783,556,1
429,761,547,1
427,761,531,1
428,774,518,1
426,757,501,1
425,736,519,1
429,732,567,1
426,754,552,1
427,754,584,1
428,728,601,1
427,740,593,1
426,804,569,1
427,795,553,1
424,773,548,1
426,774,531,1
429,810,538,1
428,812,525,1
424,804,529,1
427,858,521,1
426,826,510,1
424,801,526,1
428,789,537,1
425,785,519,1
422,792,542,1
423,763,527,1
423,740,579,1
427,721,579,1
425,707,606,1
429,728,620,1
422,731,601,1
426,782,581,1
428,782,559,1
422,769,538,1
423,789,530,1
424,800,564,1
429,793,564,1
425,815,557,1
422,820,537,1
424,834,530,1
424,820,524,1
424,806,530,1
428,788,554,1
424,784,620,1
424,769,626,1
427,757,608,1
423,808,590,1
427,856,585,1
426,901,585,1
421,943,575,1
418,938,559,1
423,922,544,1
421,899,528,1
421,875,515,1
424,864,504,1
422,851,507,1
421,833,531,1
421,863,545,1
420,840,540,1
422,809,533,1
422,802,531,1
421,789,524,1
422,783,537,1
421,767,530,1
418,793,513,1
418,793,539,1
420,798,519,1
424,798,507,1
421,832,494,1
420,887,477,1
415,871,520,1
417,894,540,1
416,889,519,1
420,878,520,1
420,846,542,1
422,832,574,1
418,804,585,1
417,804,566,1
415,830,550,1
416,858,558,1
416,908,582,1
417,888,600,1
418,889,610,1
414,917,624,1
413,904,613,1
416,901,598,1
415,868,577,1
413,853,555,1
416,848,561,1
416,831,584,1
415,799,577,1
412,779,580,1
414,775,563,1
413,763,547,1
415,736,538,1
412,712,530,1
417,757,554,1
414,832,558,1
410,881,592,1
411,889,594,1
413,865,598,1
411,851,579,1
415,840,586,1
410,843,590,1
410,838,591,1
410,838,570,1
411,809,552,1
413,783,546,1
410,768,550,1
415,761,584,1
408,735,579,1
408,720,582,1
412,707,598,1
409,697,597,1
409,732,576,1
408,728,560,1
409,726,540,1
409,709,521,1
408,712,515,1
410,696,547,1
407,711,544,1
407,704,563,1
406,719,568,1
407,711,554,1
406,696,539,1
406,686,537,1
406,667,538,1
405,653,521,1
406,653,496,1
402,644,485,1
406,628,483,1
404,637,464,1
403,663,461,1
405,681,504,1
405,670,497,1
404,649,519,1
404,634,524,1
403,644,518,1
401,626,527,1
401,608,524,1
404,623,542,1
403,690,629,1
403,672,636,1
404,706,629,1
405,711,611,1
400,702,591,1
403,716,606,1
402,715,598,1
401,697,576,1
402,737,591,1
404,714,612,1
401,698,611,1
405,692,594,1
400,674,569,1
401,661,552,1
400,663,535,1
403,661,522,1
398,652,532,1
399,632,528,1
400,615,545,1
398,611,526,1
399,621,510,1
397,623,503,1
398,630,483,1
397,636,492,1
397,636,548,1
396,650,529,1
398,650,522,1
395,676,503,1
394,703,507,1
393,684,512,1
392,672,505,1
392,653,513,1
394,646,523,1
390,665,507,1
394,652,525,1
393,648,522,1
389,637,523,1
391,628,512,1
391,631,497,1
393,619,498,1
388,672,487,1
386,696,479,1
388,686,465,1
386,664,468,1
389,646,523,1
386,635,521,1
384,621,627,1
382,606,623,1
384,607,639,1
382,630,623,1
382,617,617,1
385,629,595,1
382,635,579,1
383,644,560,1
379,645,547,1
383,629,527,1
379,646,506,1
381,638,496,1
382,626,508,1
380,609,495,1
377,603,478,1
378,616,460,1
379,606,449,1
375,587,439,1
377,619,436,1
376,616,425,1
371,613,444,1
372,596,436,1
374,606,433,1
372,586,425,1
371,582,411,1
372,576,453,1
372,584,526,1
375,592,528,1
372,573,524,1
370,601,584,1
372,619,608,1
374,605,628,1
373,627,636,1
370,605,625,1
370,596,619,1
368,595,597,1
368,634,576,1
368,624,558,1
368,606,549,1
368,608,580,1
368,591,567,1
366,578,547,1
368,594,539,1
368,582,584,1
369,598,562,1
367,588,556,1
370,578,542,1
368,612,524,1
373,590,512,1
372,606,494,1
369,596,480,1
365,593,467,1
370,578,512,1
370,566,502,1
373,558,483,1
371,542,463,1
373,558,487,1
375,544,473,1
376,530,497,1
377,519,492,1
376,517,481,1
378,521,480,1
377,521,464,1
379,554,443,1
380,538,430,1
384,527,417,1
377,509,404,1
380,501,392,1
381,491,387,1
384,479,386,1
381,497,378,1
381,482,429,1
387,478,498,1
384,471,498,1
387,506,492,1
387,536,471,1
386,531,457,1
389,545,450,1
388,574,436,1
388,586,432,1
388,582,421,1
390,570,424,1
391,571,415,1
389,569,405,1
392,562,398,1
393,552,384,1
397,563,405,1
394,561,399,1
396,594,384,1
395,582,419,1
398,580,418,1
400,567,427,1
398,561,415,1
400,544,400,1
397,532,383,1
397,520,380,1
397,531,382,1
398,528,374,1
400,533,366,1
399,518,353,1
400,524,347,1
401,508,341,1
403,497,332,1
402,495,319,1
403,487,318,1
406,479,334,1
407,472,346,1
404,481,340,1
408,507,355,1
407,530,398,1
406,559,407,1
404,586,417,1
410,596,406,1
407,611,391,1
407,609,381,1
406,613,375,1
404,600,376,1
407,578,378,1
414,589,368,1
413,574,354,1
411,561,356,1
408,539,349,1
414,534,342,1
410,520,336,1
413,504,349,1
413,504,380,1
413,498,381,1
411,499,370,1
414,535,385,1
413,526,402,1
411,541,419,1
413,563,413,1
416,556,424,1
412,537,416,1
416,534,413,1
413,526,403,1
416,506,392,1
412,520,376,1
414,514,369,1
416,502,353,1
416,505,361,1
416,493,391,1
416,492,412,1
415,493,449,1
416,480,467,1
418,474,494,1
417,468,480,1
414,478,467,1
417,487,450,1
417,477,442,1
416,473,460,1
414,473,459,1
419,476,466,1
418,471,453,1
416,470,435,1
416,467,418,1
416,457,433,1
416,447,436,1
417,473,457,1
415,510,498,1
416,511,535,1
415,502,536,1
414,500,519,1
416,486,506,1
418,496,507,1
409,487,491,1
419,479,486,1
419,471,473,1
417,464,471,1
415,454,469,1
417,444,468,1
417,447,454,1
415,454,460,1
416,440,475,1
413,442,560,1
418,439,564,1
418,450,552,1
416,450,534,1
416,467,516,1
413,488,504,1
415,477,496,1
415,470,483,1
417,462,469,1
419,451,464,1
415,446,451,1
417,439,458,1
416,429,455,1
414,422,456,1
419,407,444,1
413,401,428,1
411,390,426,1
416,394,428,1
415,388,440,1
413,380,458,1
413,372,449,1
414,365,433,1
411,356,448,1
417,368,498,1
416,372,531,1
412,368,520,1
414,360,519,1
412,354,514,1
416,349,525,1
411,378,507,1
417,386,492,1
416,386,469,1
412,385,459,1
417,374,464,1
411,368,459,1
411,359,443,1
414,361,464,1
414,384,445,1
414,376,437,1
410,374,429,1
415,366,428,1
412,361,418,1
414,365,404,1
412,354,391,1
411,342,380,1
412,338,371,1
414,340,399,1
413,359,413,1
416,379,475,1
412,372,493,1
413,384,517,1
414,400,587,1
415,424,626,1
417,491,620,1
413,497,638,1
412,491,654,1
412,528,655,1
411,520,637,1
408,551,616,1
412,538,596,1
412,565,579,1
417,569,577,1
411,601,563,1
416,597,561,1
411,582,596,1
410,570,595,1
413,604,593,1
410,590,576,1
411,573,571,1
409,555,560,1
408,555,547,1
408,557,564,1
410,555,593,1
409,538,618,1
412,538,650,1
408,562,679,1
411,548,684,1
413,559,675,1
410,600,650,1
410,590,635,1
408,576,616,1
406,560,595,1
407,559,592,1
408,544,578,1
409,534,570,1
404,528,541,1
410,536,550,1
406,540,590,1
407,524,601,1
406,509,594,1
408,497,612,1
408,503,602,1
408,542,581,1
404,538,616,1
405,543,614,1
403,532,614,1
404,547,596,1
402,531,583,1
406,534,580,1
401,517,582,1
404,538,601,1
403,525,602,1
404,522,599,1
408,515,615,1
405,507,610,1
402,494,589,1
401,503,574,1
406,508,560,1
403,528,552,1
402,553,544,1
401,548,535,1
402,528,515,1
400,514,544,1
400,516,559,1
400,518,582,1
400,521,596,1
405,506,659,1
400,516,652,1
398,510,656,1
396,515,649,1
399,503,676,1
402,500,665,1
400,493,649,1
397,486,657,1
394,533,659,1
398,534,648,1
397,530,649,1
396,518,629,1
399,521,622,1
398,508,601,1
398,514,592,1
397,501,586,1
400,487,580,1
399,468,584,1
394,455,566,1
395,445,562,1
396,446,558,1
399,441,566,1
394,437,561,1
391,457,581,1
393,472,606,1
395,486,604,1
392,488,608,1
392,512,597,1
393,510,576,1
389,490,556,1
389,479,538,1
388,475,519,1
391,484,521,1
386,475,536,1
388,467,529,1
384,466,516,1
387,459,505,1
387,450,492,1
386,467,485,1
388,482,471,1
384,482,459,1
383,490,445,1
382,500,452,1
381,525,474,1
382,512,459,1
381,508,448,1
379,504,432,1
378,522,415,1
375,514,406,1
380,510,424,1
377,498,439,1
380,490,434,1
378,501,477,1
375,519,472,1
376,516,458,1
375,522,446,1
375,516,442,1
379,545,453,1
373,541,441,1
376,546,447,1
376,545,440,1
378,524,451,1
373,526,480,1
374,525,464,1
377,515,448,1
376,496,442,1
376,491,434,1
384,486,439,1
380,472,477,1
380,465,465,1
379,474,473,1
377,470,474,1
379,453,460,1
380,460,450,1
379,453,468,1
383,469,454,1
377,473,453,1
386,470,444,1
384,486,458,1
386,481,470,1
384,486,464,1
383,470,465,1
384,458,461,1
387,444,444,1
389,433,442,1
390,457,475,1
388,472,490,1
391,483,557,1
388,470,605,1
388,467,587,1
391,460,573,1
393,450,560,1
393,449,534,1
392,434,515,1
394,424,497,1
394,439,485,1
396,440,492,1
400,434,478,1
397,439,462,1
397,455,452,1
396,461,480,1
397,459,478,1
400,468,467,1
399,466,469,1
404,473,468,1
405,471,489,1
404,504,508,1
406,501,500,1
401,488,491,1
404,486,473,1
405,495,463,1
404,506,451,1
407,500,442,1
406,495,427,1
406,484,422,1
407,480,419,1
406,484,408,1
410,485,454,1
412,468,461,1
408,457,441,1
407,447,438,1
412,443,460,1
410,435,462,1
409,452,471,1
414,457,470,1
414,446,458,1
414,440,458,1
412,428,444,1
414,416,478,1
416,406,475,1
417,391,480,1
412,384,469,1
418,381,457,1
418,384,453,1
417,410,449,1
418,407,443,1
415,395,424,1
415,422,413,1
419,425,414,1
420,443,412,1
416,443,416,1
417,458,432,1
421,478,450,1
416,461,451,1
417,458,460,1
423,445,487,1
419,436,505,1
419,439,489,1
416,452,478,1
424,449,462,1
424,435,466,1
422,442,458,1
417,458,443,1
418,492,437,1
422,493,424,1
419,477,443,1
421,464,448,1
422,471,438,1
423,487,440,1
421,477,432,1
422,484,420,1
423,496,402,1
423,488,400,1
421,489,441,1
423,484,448,1
424,492,506,1
424,490,515,1
421,485,528,1
422,488,525,1
424,488,510,1
422,480,521,1
426,465,516,1
421,452,505,1
422,456,491,1
421,439,492,1
424,430,560,1
426,457,549,1
424,463,530,1
425,450,531,1
422,456,519,1
426,448,512,1
420,436,503,1
423,423,494,1
425,411,493,1
425,406,482,1
424,428,476,1
426,453,491,1
425,475,506,1
422,465,498,1
423,451,478,1
426,441,471,1
427,427,454,1
422,416,443,1
424,421,432,1
427,462,459,1
419,451,451,1
423,472,454,1
420,465,444,1
422,476,430,1
421,462,415,1
422,450,397,1
424,438,386,1
424,436,388,1
422,480,439,1
421,477,429,1
420,470,443,1
419,461,429,1
423,449,419,1
422,448,412,1
426,487,429,1
421,479,416,1
420,477,447,1
422,480,442,1
422,465,425,1
419,468,411,1
419,464,398,1
420,494,398,1
418,483,452,1
423,469,440,1
418,464,428,1
416,454,417,1
417,460,399,1
418,458,412,1
417,445,405,1
422,457,420,1
419,445,470,1
416,437,485,1
416,428,483,1
417,435,466,1
417,421,446,1
418,425,434,1
414,432,418,1
418,444,440,1
418,444,461,1
419,429,463,1
415,424,503,1
416,416,492,1
414,410,476,1
414,408,464,1
414,395,464,1
416,388,456,1
416,385,481,1
411,370,485,1
412,367,474,1
412,363,456,1
413,356,453,1
413,349,450,1
413,349,448,1
416,347,441,1
408,335,428,1
413,332,424,1
413,346,413,1
410,339,428,1
409,336,433,1
409,346,423,1
410,358,409,1
410,348,419,1
405,348,423,1
406,339,429,1
410,344,416,1
408,367,414,1
410,362,444,1
408,358,486,1
408,352,524,1
409,367,565,1
407,381,560,1
409,383,540,1
407,374,526,1
405,406,521,1
404,412,505,1
406,405,487,1
408,394,486,1
404,392,480,1
407,384,527,1
404,389,531,1
405,410,512,1
401,400,494,1
404,392,504,1
404,428,490,1
404,441,498,1
403,458,548,1
406,480,564,1
401,479,542,1
405,512,546,1
400,517,531,1
402,520,515,1
399,533,516,1
400,523,498,1
401,509,480,1
400,493,477,1
403,479,468,1
401,465,460,1
399,456,466,1
398,445,444,1
402,437,459,1
400,433,525,1
406,449,568,1
400,495,555,1
401,486,556,1
401,526,551,1
398,572,531,1
398,572,532,1
402,553,524,1
400,542,509,1
401,530,515,1
399,508,516,1
399,497,510,1
400,490,508,1
401,479,495,1
400,475,480,1
396,466,467,1
398,460,451,1
398,451,441,1
398,449,435,1
400,439,456,1
398,433,450,1
398,467,501,1
398,550,557,1
396,556,544,1
397,592,539,1
396,579,535,1
394,558,530,1
393,545,509,1
398,540,506,1
394,550,505,1
397,546,507,1
395,525,490,1
391,512,470,1
394,510,466,1
393,514,482,1
392,503,468,1
394,491,457,1
394,477,443,1
391,467,436,1
394,451,459,1
394,458,461,1
394,491,456,1
394,502,440,1
390,546,464,1
394,571,458,1
390,561,440,1
395,552,445,1
392,537,463,1
392,517,469,1
392,502,454,1
390,483,440,1
391,476,425,1
388,477,410,1
389,474,412,1
389,462,407,1
388,454,406,1
389,438,404,1
387,426,389,1
385,412,384,1
391,411,379,1
390,414,369,1
388,416,352,1
384,415,343,1
383,414,350,1
383,443,418,1
386,451,414,1
385,462,402,1
382,465,432,1
382,454,427,1
382,447,469,1
384,434,465,1
382,421,456,1
377,409,444,1
381,394,439,1
376,391,431,1
379,392,440,1
379,388,457,1
379,378,441,1
376,388,422,1
375,399,416,1
376,395,402,1
375,384,388,1
371,375,384,1
373,366,374,1
375,364,364,1
373,355,357,1
373,356,369,1
372,349,392,1
374,341,397,1
372,338,414,1
369,339,434,1
368,332,437,1
370,335,426,1
367,328,427,1
367,320,442,1
368,312,426,1
372,308,440,1
371,316,433,1
372,318,418,1
373,329,410,1
371,340,396,1
372,353,392,1
372,345,382,1
372,343,385,1
376,345,376,1
372,358,384,1
377,354,380,1
376,365,391,1
378,364,388,1
374,371,386,1
376,371,392,1
376,385,416,1
377,376,464,1
375,369,468,1
379,365,460,1
380,350,448,1
380,346,430,1
377,342,415,1
384,353,405,1
380,377,395,1
384,372,406,1
382,363,406,1
383,368,399,1
386,360,392,1
385,382,375,1
386,372,364,1
389,365,360,1
389,367,350,1
391,370,378,1
387,358,364,1
390,360,355,1
390,371,356,1
396,363,378,1
390,362,369,1
394,354,361,1
394,355,360,1
391,346,349,1
396,341,343,1
395,334,336,1
396,331,376,1
397,353,407,1
398,348,406,1
396,367,393,1
400,368,380,1
399,362,439,1
400,352,454,1
400,348,466,1
397,357,475,1
401,368,462,1
403,363,447,1
398,364,436,1
402,355,434,1
403,350,422,1
402,344,409,1
403,334,397,1
403,332,411,1
404,325,429,1
404,317,425,1
407,321,456,1
405,317,445,1
405,331,428,1
405,336,430,1
406,332,416,1
407,331,405,1
406,323,411,1
408,357,398,1
410,367,388,1
408,398,387,1
409,398,381,1
411,394,366,1
408,403,371,1
407,410,368,1
415,409,358,1
413,402,354,1
410,392,345,1
413,387,343,1
413,387,349,1
409,378,340,1
414,366,364,1
411,357,398,1
414,353,392,1
414,379,406,1
409,388,427,1
416,380,447,1
411,377,436,1
413,384,425,1
415,387,415,1
416,375,408,1
414,376,396,1
414,365,400,1
414,375,400,1
416,371,407,1
413,366,397,1
411,368,392,1
416,364,381,1
414,351,368,1
418,344,364,1
415,344,359,1
413,335,363,1
418,334,355,1
417,328,346,1
416,321,337,1
416,312,327,1
415,307,314,1
417,301,309,1
416,329,306,1
419,365,296,1
420,386,330,1
417,384,325,1
415,373,322,1
416,365,334,1
418,360,327,1
418,358,316,1
416,356,311,1
418,365,311,1
417,360,310,1
415,364,305,1
415,359,319,1
416,352,336,1
414,350,346,1
416,344,348,1
417,332,337,1
417,326,329,1
423,323,323,1
417,315,312,1
415,311,301,1
417,304,289,1
419,303,282,1
416,292,278,1
416,289,269,1
417,285,263,1
419,280,258,1
420,285,250,1
416,282,245,1
413,288,238,1
416,311,233,1
417,309,226,1
416,301,224,1
416,311,230,1
416,303,236,1
414,298,248,1
416,292,255,1
418,284,290,1
414,277,304,1
419,278,310,1
418,281,304,1
416,275,301,1
416,272,303,1
414,268,297,1
413,260,287,1
414,253,306,1
418,249,301,1
413,243,289,1
415,246,285,1
412,238,278,1
411,225,269,1
410,228,260,1
411,225,254,1
409,228,248,1
413,218,242,1
414,214,233,1
413,214,229,1
416,212,224,1
411,208,217,1
410,203,212,1
415,203,209,1
413,198,209,1
413,198,202,1
410,195,198,1
408,193,193,1
410,193,193,1
409,192,192,1
413,186,187,1
412,185,182,1
411,187,181,1
410,181,176,1
411,183,172,1
408,181,170,1
412,179,166,1
410,177,163,1
412,184,163,1
411,178,162,1
408,179,160,1
410,177,157,1
410,176,159,1
408,176,154,1
409,175,152,1
408,177,151,1
408,172,148,1
410,173,146,1
408,173,141,1
408,167,141,1
411,168,138,1
410,171,138,1
407,170,136,1
408,168,135,1
409,165,132,1
408,164,129,1
406,166,136,1
406,168,141,1
406,179,140,1
408,200,140,1
406,195,141,1
403,193,134,1
406,193,136,1
403,192,137,1
403,206,139,1
403,207,139,1
403,204,136,1
403,204,134,1
402,203,132,1
404,202,136,1
405,205,136,1
402,212,140,1
410,217,138,1
401,215,139,1
401,217,139,1
400,229,145,1
400,224,152,1
400,254,171,1
400,256,175,1
402,261,170,1
401,282,184,1
402,275,191,1
400,310,188,1
400,326,212,1
397,335,224,1
391,328,224,1
393,326,215,1
396,320,211,1
392,318,205,1
396,313,202,1
395,315,206,1
395,314,208,1
395,316,202,1
393,309,201,1
395,309,201,1
393,305,202,0
391,305,203,0
393,309,204,0
390,314,213,0
390,308,212,0
390,306,219,0
389,306,218,0
388,309,219,0
388,308,220,0
387,306,219,0
388,309,222,0
389,306,216,0
387,309,216,0
387,304,221,0
384,307,238,0
388,326,254,0
385,332,257,0
380,337,265,0
382,348,264,0
383,345,262,0
381,337,260,0
383,334,256,0
382,338,252,0
382,331,265,0
382,337,284,0
383,344,301,0
381,347,303,0
382,345,292,0
380,342,292,0
380,362,285,0
379,387,297,0
381,383,314,0
376,380,308,0
379,377,300,0
377,383,297,0
376,377,291,0
375,377,300,0
377,374,295,0
375,372,294,0
373,369,286,0
373,366,287,0
374,363,290,0
374,362,288,0
371,367,292,0
373,361,296,0
375,359,298,0
374,364,292,0
374,357,286,0
371,356,300,0
375,366,310,0
373,384,310,0
374,380,307,0
375,380,301,0
373,377,310,0
374,380,324,0
376,389,335,0
376,388,344,0
376,393,346,0
377,399,338,0
376,388,326,0
377,382,322,0
380,383,314,0
378,378,310,0
381,384,317,0
379,384,312,0
380,382,309,0
383,394,304,0
385,398,322,0
381,403,345,0
386,416,361,0
389,402,357,0
388,389,352,0
391,390,346,0
390,390,348,0
391,393,355,0
390,393,359,0
391,391,377,0
395,401,379,0
394,397,369,0
395,386,357,0
395,375,345,0
396,376,359,0
400,381,363,0
401,393,361,0
399,389,365,0
404,389,358,0
400,379,352,0
405,372,348,0
406,371,349,0
405,380,356,0
409,398,361,0
409,414,365,0
409,406,367,0
412,406,364,0
411,396,371,0
412,398,377,0
412,398,378,0
413,398,371,0
412,392,364,0
413,383,360,0
417,382,357,0
422,379,355,0
416,388,368,0
423,392,392,0
420,383,393,0
424,379,397,0
423,366,389,0
424,382,375,0
424,381,380,0
423,382,378,0
428,384,377,0
427,377,372,0
425,376,368,0
428,368,364,0
429,369,369,0
431,373,368,0
430,375,375,0
429,376,367,0
433,371,372,0
429,369,383,0
433,360,385,0
433,361,382,0
432,360,374,0
434,356,378,0
433,348,371,0
438,360,373,0
439,349,373,0
435,343,375,0
438,341,375,0
438,346,378,0
438,342,382,0
439,339,378,0
440,334,365,0
438,327,376,0
440,330,393,0
442,331,401,0
440,333,394,0
442,330,385,0
444,333,385,0
440,323,375,0
440,313,379,0
441,322,410,0
442,343,442,0
443,344,437,0
443,336,423,0
447,327,414,0
445,321,404,0
444,316,398,0
447,313,395,0
448,315,397,0
444,312,393,0
448,306,383,0
447,296,379,0
443,289,377,0
445,292,381,0
446,292,377,0
444,290,378,0
448,289,374,0
448,285,372,0
449,278,364,0
448,279,362,0
449,276,363,0
446,276,361,0
447,273,360,0
447,272,350,0
447,270,349,0
449,264,340,0
449,268,341,0
449,272,343,0
445,275,341,0
449,273,338,0
448,267,337,0
447,266,330,0
447,260,324,0
449,259,320,0
445,258,321,0
449,259,321,0
448,252,320,0
447,256,313,0
448,248,307,0
448,245,301,0
446,239,296,0
450,237,294,0
448,248,298,0
445,246,295,0
444,245,290,0
451,241,292,0
448,236,289,0
445,235,288,0
444,236,293,0
445,236,281,0
440,229,284,0
446,230,278,0
445,226,283,0
444,227,290,0
446,229,286,0
440,227,290,0
443,220,283,0
443,223,279,0
444,220,274,0
446,219,271,0
443,212,268,0
440,214,267,0
443,211,269,0
442,212,265,0
443,211,259,0
442,208,256,0
441,210,262,0
442,210,261,0
441,212,265,0
439,214,259,0
440,209,258,0
440,204,250,0
440,202,249,0
441,208,252,0
438,206,251,0
438,206,250,0
436,202,250,0
439,201,245,0
439,199,237,0
439,197,234,0
443,199,232,0
436,206,238,0
436,202,234,0
433,201,229,0
435,198,226,0
434,198,226,0
436,200,234,0
435,200,250,0
434,200,256,0
434,196,250,0
431,196,245,0
432,195,235,0
434,190,233,0
433,189,225,0
436,187,225,0
425,189,218,0
427,185,213,0
430,188,216,0
433,186,209,0
429,183,208,0
430,192,208,0
429,195,210,0
429,193,205,0
427,191,201,0
424,191,199,0
428,186,195,0
425,188,195,0
427,187,188,0
425,184,194,0
423,185,194,0
425,189,185,0
423,184,182,0
425,182,184,0
423,183,179,0
424,182,178,0
424,181,177,0
421,181,175,0
425,180,174,0
418,177,168,0
422,176,169,0
422,181,168,0
416,189,166,0
419,187,168,0
420,187,161,0
417,185,156,0
417,185,161,0
417,185,164,0
416,184,158,0
414,185,155,0
417,183,152,0
416,181,150,0
414,182,148,0
416,181,147,0
413,182,145,0
413,192,152,0
409,189,149,0
412,190,149,0
410,184,145,0
408,182,148,0
409,189,147,0
412,189,142,0
413,189,144,0
410,186,142,0
410,186,140,0
412,184,139,0
411,182,146,0
407,190,160,0
408,188,154,0
407,182,152,0
406,183,151,0
405,181,149,0
403,181,145,0
406,181,146,0
407,181,144,0
406,186,143,0
403,184,141,0
403,184,138,0
403,183,136,0
401,184,133,0
400,180,133,0
401,181,134,0
401,181,136,0
401,182,132,0
404,182,132,0
400,178,128,0
398,179,129,0
400,180,129,0
401,179,129,0
398,179,130,0
400,179,129,0
399,174,129,0
393,176,128,0
399,176,128,0
397,179,127,0
395,178,128,0
394,177,126,0
396,173,127,0
393,172,125,0
393,168,123,0
394,170,123,0
394,169,123,0
394,169,120,0
394,168,122,0
395,171,123,0
394,166,117,0
392,166,118,0
393,165,118,0
392,167,122,0
391,169,120,0
389,166,116,0
390,164,119,0
390,164,120,0
387,162,120,0
389,164,119,0
389,164,121,0
390,162,122,0
387,162,128,0
384,161,123,0
389,162,122,0
387,164,134,0
385,164,144,0
385,162,144,0
386,161,141,0
381,164,138,0
385,164,140,0
386,162,141,0
385,161,134,0
382,158,132,0
384,160,132,0
381,161,130,0
383,158,132,0
384,161,128,0
380,156,128,0
382,160,124,0
384,160,128,0
383,160,121,0
380,160,120,0
381,164,120,0
383,169,121,0
380,168,124,0
379,168,123,0
382,168,121,0
378,170,123,0
380,169,121,0
379,169,116,0
378,165,122,0
377,165,115,0
379,164,118,0
376,164,115,0
378,163,115,0
376,162,113,0
378,166,115,0
375,160,115,0
377,161,114,0
378,163,112,0
376,161,113,0
373,159,110,0
378,155,108,0
375,155,109,0
373,155,112,0
372,160,106,0
377,156,108,0
375,160,108,0
371,160,106,0
371,154,107,0
366,154,102,0
370,156,106,0
367,154,103,0
369,155,104,0
369,154,101,0
366,155,103,0
372,153,102,0
368,153,104,0
369,166,103,0
372,164,105,0
369,164,102,0
368,164,99,0
371,161,101,0
374,163,99,0
374,167,100,0
374,172,101,0
376,169,100,0
376,169,101,0
377,169,98,0
376,167,99,0
376,167,99,0
382,169,98,0
384,165,96,0
379,167,99,0
383,163,97,0
384,164,98,0
386,164,96,0
384,164,97,0
387,162,95,0
390,163,94,0
389,162,96,0
386,165,93,0
390,163,94,0
390,163,93,0
392,160,94,0
394,159,96,0
397,158,95,0
398,165,94,0
397,157,96,0
397,160,92,0
402,161,92,0
401,160,94,0
398,160,95,0
403,158,92,0
401,160,92,0
404,155,92,0
400,159,92,0
406,156,91,0
406,156,93,0
405,156,91,0
408,158,91,0
412,154,91,0
411,157,92,0
411,150,93,0
412,157,92,0
413,156,92,0
416,156,89,0
412,154,93,0
416,153,98,0
416,152,93,0
414,154,94,0
417,155,93,0
419,156,93,0
419,161,90,0
416,159,90,0
416,158,94,0
420,158,94,0
420,158,96,0
423,158,92,0
420,154,93,0
426,153,94,0
422,156,92,0
427,155,94,0
429,153,93,0
429,156,94,0
428,157,96,0
426,154,94,0
427,155,94,0
430,151,96,0
429,150,92,0
429,157,94,0
432,155,91,0
431,153,96,0
429,153,91,0
428,154,91,0
433,153,90,0
433,156,96,0
431,154,92,0
437,150,96,0
434,152,92,0
434,151,93,0
433,151,95,0
434,150,91,0
435,149,92,0
435,152,92,0
434,151,91,0
435,149,88,0
438,146,94,0
437,145,97,0
435,144,99,0
437,148,101,0
438,151,98,0
437,145,96,0
440,146,96,0
440,148,95,0
442,147,94,0
438,147,96,0
441,146,92,0
442,145,95,0
438,146,96,0
439,145,94,0
439,144,94,0
441,148,93,0
442,142,93,0
440,143,95,0
444,148,96,0
442,144,96,0
442,145,95,0
440,146,93,0
443,148,94,0
442,145,92,0
440,144,96,0
442,145,92,0
442,146,93,0
444,144,92,0
445,145,92,0
445,146,92,0
445,146,94,0
442,144,93,0
444,147,92,0
442,146,93,0
440,144,92,0
445,144,92,0
442,144,92,0
441,145,91,0
443,144,92,0
442,146,92,0
443,142,89,0
442,144,95,0
442,146,93,0
441,145,93,0
442,144,93,0
443,144,92,0
440,145,93,0
439,144,90,0
442,147,92,0
441,144,96,0
442,146,93,0
440,145,90,0
440,144,91,0
442,142,90,0
443,144,93,0
445,144,91,0
444,143,91,0
445,145,94,0
445,144,91,0
442,142,91,0
442,144,92,0
443,144,96,0
443,143,94,0
448,144,91,0
441,147,93,0
439,145,93,0
441,144,96,0
438,144,96,0
444,142,92,0
443,148,96,0
440,144,98,0
440,141,94,0
442,147,94,0
440,146,94,0
440,144,93,0
445,144,96,0
440,147,95,0
442,145,97,0
439,146,94,0
441,144,92,0
441,145,94,0
443,146,92,0
447,148,95,0
440,153,94,0
442,148,92,0
438,149,92,0
440,147,92,0
437,150,94,0
439,148,92,0
440,152,92,0
440,150,94,0
441,154,90,0
434,152,88,0
434,151,91,0
438,151,92,0
438,155,95,0
435,151,93,0
437,154,94,0
